wavelength_axis,light_level,mean_wavelength,total_power
1250.0,-56.43,1310.438,-17.55898309855382
1250.015,-56.24,,
1250.03,-56.33,,
1250.045,-56.47,,
1250.06,-56.57,,
1250.075,-56.51,,
1250.09,-56.4,,
1250.105,-56.48,,
1250.12,-56.76,,
1250.135,-57.02,,
1250.15,-56.87,,
1250.165,-56.53,,
1250.18,-56.55,,
1250.195,-56.6,,
1250.21,-56.84,,
1250.225,-56.78,,
1250.24,-56.54,,
1250.255,-56.53,,
1250.27,-56.6,,
1250.285,-56.63,,
1250.3,-56.65,,
1250.315,-56.64,,
1250.33,-56.32,,
1250.345,-56.32,,
1250.36,-56.33,,
1250.375,-56.31,,
1250.39,-56.31,,
1250.405,-56.35,,
1250.42,-56.3,,
1250.435,-56.38,,
1250.45,-56.45,,
1250.465,-56.45,,
1250.48,-56.44,,
1250.495,-56.07,,
1250.51,-56.01,,
1250.525,-56.21,,
1250.54,-56.5,,
1250.555,-56.58,,
1250.57,-56.4,,
1250.585,-56.27,,
1250.6,-56.34,,
1250.615,-56.59,,
1250.63,-56.77,,
1250.645,-56.72,,
1250.66,-56.65,,
1250.675,-56.52,,
1250.69,-56.59,,
1250.705,-56.98,,
1250.72,-57.18,,
1250.735,-57.07,,
1250.75,-56.97,,
1250.765,-56.98,,
1250.78,-57.22,,
1250.795,-57.24,,
1250.81,-57.16,,
1250.825,-57.03,,
1250.84,-56.86,,
1250.855,-57.01,,
1250.87,-57.33,,
1250.885,-57.35,,
1250.9,-57.16,,
1250.915,-56.74,,
1250.93,-56.64,,
1250.945,-56.81,,
1250.96,-56.96,,
1250.975,-56.73,,
1250.99,-56.64,,
1251.005,-56.64,,
1251.02,-56.71,,
1251.035,-56.62,,
1251.05,-56.68,,
1251.065,-56.64,,
1251.08,-56.33,,
1251.095,-56.41,,
1251.11,-56.38,,
1251.125,-56.43,,
1251.14,-56.33,,
1251.155,-56.33,,
1251.17,-56.26,,
1251.185,-56.28,,
1251.2,-56.31,,
1251.215,-56.33,,
1251.23,-56.23,,
1251.245,-56.03,,
1251.26,-56.05,,
1251.275,-55.98,,
1251.29,-56.31,,
1251.305,-56.33,,
1251.32,-56.22,,
1251.335,-56.24,,
1251.35,-56.32,,
1251.365,-56.4,,
1251.38,-56.51,,
1251.395,-56.35,,
1251.41,-56.23,,
1251.425,-56.21,,
1251.44,-56.28,,
1251.455,-56.58,,
1251.47,-56.55,,
1251.485,-56.37,,
1251.5,-56.26,,
1251.515,-56.56,,
1251.53,-56.63,,
1251.545,-56.65,,
1251.56,-56.48,,
1251.575,-56.41,,
1251.59,-56.42,,
1251.605,-56.47,,
1251.62,-56.56,,
1251.635,-56.51,,
1251.65,-56.39,,
1251.665,-56.15,,
1251.68,-56.38,,
1251.695,-56.46,,
1251.71,-56.53,,
1251.725,-56.23,,
1251.74,-56.02,,
1251.755,-56.01,,
1251.77,-56.16,,
1251.785,-56.42,,
1251.8,-56.11,,
1251.815,-56.16,,
1251.83,-55.99,,
1251.845,-56.37,,
1251.86,-56.45,,
1251.875,-56.48,,
1251.89,-56.13,,
1251.905,-55.99,,
1251.92,-55.98,,
1251.935,-56.2,,
1251.95,-56.51,,
1251.965,-56.06,,
1251.98,-56.03,,
1251.995,-55.9,,
1252.01,-56.11,,
1252.025,-56.26,,
1252.04,-56.49,,
1252.055,-56.39,,
1252.07,-56.26,,
1252.085,-56.37,,
1252.1,-56.37,,
1252.115,-56.73,,
1252.13,-56.56,,
1252.145,-56.54,,
1252.16,-56.27,,
1252.175,-56.38,,
1252.19,-56.59,,
1252.205,-56.82,,
1252.22,-56.63,,
1252.235,-56.4,,
1252.25,-56.64,,
1252.265,-56.79,,
1252.28,-57.2,,
1252.295,-56.83,,
1252.31,-56.58,,
1252.325,-56.54,,
1252.34,-56.68,,
1252.355,-56.88,,
1252.37,-57.14,,
1252.385,-56.87,,
1252.4,-56.86,,
1252.415,-56.88,,
1252.43,-57.09,,
1252.445,-57.37,,
1252.46,-57.0,,
1252.475,-56.72,,
1252.49,-56.63,,
1252.505,-57.04,,
1252.52,-57.04,,
1252.535,-56.72,,
1252.55,-56.45,,
1252.565,-56.45,,
1252.58,-56.58,,
1252.595,-56.73,,
1252.61,-56.79,,
1252.625,-56.55,,
1252.64,-56.4,,
1252.655,-56.47,,
1252.67,-56.87,,
1252.685,-56.69,,
1252.7,-56.53,,
1252.715,-56.24,,
1252.73,-56.34,,
1252.745,-56.63,,
1252.76,-56.7,,
1252.775,-56.63,,
1252.79,-56.36,,
1252.805,-56.52,,
1252.82,-56.71,,
1252.835,-56.96,,
1252.85,-56.7,,
1252.865,-56.57,,
1252.88,-56.25,,
1252.895,-56.41,,
1252.91,-56.7,,
1252.925,-56.69,,
1252.94,-56.68,,
1252.955,-56.33,,
1252.97,-56.58,,
1252.985,-56.8,,
1253.0,-57.21,,
1253.015,-56.9,,
1253.03,-56.66,,
1253.045,-56.74,,
1253.06,-56.75,,
1253.075,-56.99,,
1253.09,-56.82,,
1253.105,-56.86,,
1253.12,-56.49,,
1253.135,-56.71,,
1253.15,-56.83,,
1253.165,-57.01,,
1253.18,-56.86,,
1253.195,-56.59,,
1253.21,-56.68,,
1253.225,-56.63,,
1253.24,-56.87,,
1253.255,-56.66,,
1253.271,-56.59,,
1253.285,-56.24,,
1253.3,-56.55,,
1253.315,-56.58,,
1253.33,-56.56,,
1253.345,-56.45,,
1253.36,-56.27,,
1253.375,-56.29,,
1253.391,-56.44,,
1253.406,-56.51,,
1253.421,-56.34,,
1253.435,-56.34,,
1253.45,-56.14,,
1253.465,-56.36,,
1253.48,-56.31,,
1253.495,-56.32,,
1253.51,-56.18,,
1253.526,-56.16,,
1253.541,-56.47,,
1253.556,-56.4,,
1253.571,-56.4,,
1253.585,-56.23,,
1253.6,-56.29,,
1253.615,-56.26,,
1253.63,-56.5,,
1253.646,-56.39,,
1253.661,-56.46,,
1253.676,-56.2,,
1253.691,-56.39,,
1253.706,-56.55,,
1253.72,-56.55,,
1253.735,-56.52,,
1253.75,-56.22,,
1253.766,-56.5,,
1253.781,-56.51,,
1253.796,-56.75,,
1253.811,-56.58,,
1253.826,-56.36,,
1253.841,-56.35,,
1253.856,-56.39,,
1253.87,-56.52,,
1253.885,-56.49,,
1253.901,-56.42,,
1253.916,-56.18,,
1253.931,-56.34,,
1253.946,-56.5,,
1253.961,-56.86,,
1253.976,-56.62,,
1253.991,-56.5,,
1254.005,-56.42,,
1254.021,-56.59,,
1254.036,-56.87,,
1254.051,-56.63,,
1254.066,-56.57,,
1254.081,-56.31,,
1254.096,-56.49,,
1254.111,-56.62,,
1254.126,-56.65,,
1254.141,-56.48,,
1254.156,-56.25,,
1254.171,-56.23,,
1254.186,-56.35,,
1254.201,-56.67,,
1254.216,-56.36,,
1254.231,-56.26,,
1254.246,-56.2,,
1254.261,-56.25,,
1254.276,-56.46,,
1254.291,-56.52,,
1254.306,-56.33,,
1254.321,-56.19,,
1254.336,-56.4,,
1254.351,-56.65,,
1254.366,-56.98,,
1254.381,-56.7,,
1254.396,-56.48,,
1254.411,-56.39,,
1254.426,-56.66,,
1254.441,-56.75,,
1254.456,-56.64,,
1254.471,-56.39,,
1254.486,-56.33,,
1254.501,-56.58,,
1254.516,-56.75,,
1254.531,-56.77,,
1254.546,-56.35,,
1254.561,-56.5,,
1254.576,-56.73,,
1254.591,-56.83,,
1254.606,-56.88,,
1254.621,-56.71,,
1254.636,-56.53,,
1254.651,-56.56,,
1254.666,-56.7,,
1254.681,-56.87,,
1254.696,-56.8,,
1254.711,-56.56,,
1254.726,-56.66,,
1254.741,-57.02,,
1254.756,-57.44,,
1254.771,-57.16,,
1254.786,-56.99,,
1254.801,-56.86,,
1254.816,-56.91,,
1254.831,-57.3,,
1254.846,-57.08,,
1254.861,-56.8,,
1254.876,-56.59,,
1254.891,-56.71,,
1254.906,-56.96,,
1254.921,-57.08,,
1254.936,-56.93,,
1254.951,-56.71,,
1254.966,-56.5,,
1254.981,-56.64,,
1254.996,-56.94,,
1255.011,-56.66,,
1255.026,-56.52,,
1255.041,-56.33,,
1255.056,-56.44,,
1255.071,-56.71,,
1255.086,-56.75,,
1255.101,-56.63,,
1255.116,-56.4,,
1255.131,-56.66,,
1255.146,-56.78,,
1255.161,-57.09,,
1255.176,-56.82,,
1255.191,-56.72,,
1255.206,-56.38,,
1255.221,-56.72,,
1255.236,-56.98,,
1255.251,-56.81,,
1255.266,-56.81,,
1255.281,-56.5,,
1255.296,-56.7,,
1255.311,-56.83,,
1255.326,-57.16,,
1255.341,-56.9,,
1255.356,-56.79,,
1255.371,-56.67,,
1255.386,-56.75,,
1255.401,-56.98,,
1255.416,-56.93,,
1255.431,-56.86,,
1255.446,-56.65,,
1255.461,-56.86,,
1255.476,-56.9,,
1255.491,-57.19,,
1255.506,-56.84,,
1255.521,-56.89,,
1255.536,-56.92,,
1255.551,-57.37,,
1255.566,-57.37,,
1255.581,-57.08,,
1255.596,-57.01,,
1255.611,-56.79,,
1255.626,-57.09,,
1255.641,-57.15,,
1255.656,-57.1,,
1255.671,-56.95,,
1255.686,-56.8,,
1255.701,-56.85,,
1255.716,-56.89,,
1255.731,-56.92,,
1255.746,-56.69,,
1255.761,-56.43,,
1255.776,-56.56,,
1255.791,-56.83,,
1255.806,-56.75,,
1255.821,-56.7,,
1255.836,-56.66,,
1255.851,-56.67,,
1255.866,-57.04,,
1255.881,-57.03,,
1255.896,-56.97,,
1255.911,-56.64,,
1255.926,-56.7,,
1255.941,-56.91,,
1255.956,-56.91,,
1255.971,-56.85,,
1255.986,-56.74,,
1256.001,-56.83,,
1256.016,-56.99,,
1256.031,-57.16,,
1256.046,-57.05,,
1256.061,-56.91,,
1256.076,-56.87,,
1256.091,-56.92,,
1256.106,-57.1,,
1256.121,-57.06,,
1256.136,-56.89,,
1256.151,-56.8,,
1256.166,-56.76,,
1256.181,-56.89,,
1256.196,-56.78,,
1256.211,-56.91,,
1256.226,-56.7,,
1256.241,-56.68,,
1256.256,-56.79,,
1256.271,-56.92,,
1256.286,-57.04,,
1256.301,-56.84,,
1256.316,-57.0,,
1256.331,-56.95,,
1256.346,-57.08,,
1256.361,-56.99,,
1256.376,-56.93,,
1256.391,-56.86,,
1256.406,-56.9,,
1256.421,-56.89,,
1256.436,-56.72,,
1256.451,-56.71,,
1256.466,-56.63,,
1256.481,-56.87,,
1256.496,-56.62,,
1256.511,-56.78,,
1256.526,-56.62,,
1256.541,-56.67,,
1256.556,-56.65,,
1256.571,-56.75,,
1256.586,-56.87,,
1256.601,-56.74,,
1256.616,-56.94,,
1256.631,-56.76,,
1256.646,-56.91,,
1256.661,-56.99,,
1256.676,-56.88,,
1256.691,-56.98,,
1256.706,-56.73,,
1256.721,-56.96,,
1256.736,-57.16,,
1256.751,-57.2,,
1256.766,-57.13,,
1256.781,-56.98,,
1256.796,-56.83,,
1256.811,-56.92,,
1256.826,-57.02,,
1256.841,-56.75,,
1256.856,-56.62,,
1256.871,-56.45,,
1256.886,-56.69,,
1256.901,-56.61,,
1256.916,-56.72,,
1256.931,-56.59,,
1256.946,-56.67,,
1256.961,-56.84,,
1256.976,-56.97,,
1256.991,-57.06,,
1257.006,-56.84,,
1257.021,-56.62,,
1257.036,-56.58,,
1257.051,-56.75,,
1257.066,-56.79,,
1257.081,-56.56,,
1257.096,-56.55,,
1257.111,-56.57,,
1257.126,-56.65,,
1257.141,-56.71,,
1257.156,-56.65,,
1257.171,-56.56,,
1257.186,-56.63,,
1257.201,-56.92,,
1257.216,-56.94,,
1257.231,-56.9,,
1257.246,-56.87,,
1257.261,-56.82,,
1257.276,-56.89,,
1257.291,-56.76,,
1257.306,-57.05,,
1257.321,-56.73,,
1257.336,-56.66,,
1257.351,-56.72,,
1257.366,-56.95,,
1257.381,-56.79,,
1257.396,-56.76,,
1257.411,-56.81,,
1257.426,-56.87,,
1257.441,-57.06,,
1257.456,-57.04,,
1257.471,-56.9,,
1257.486,-56.55,,
1257.501,-56.67,,
1257.516,-56.83,,
1257.531,-56.97,,
1257.546,-56.78,,
1257.561,-56.45,,
1257.576,-56.28,,
1257.591,-56.46,,
1257.606,-56.75,,
1257.621,-56.68,,
1257.636,-56.65,,
1257.651,-56.61,,
1257.666,-56.65,,
1257.681,-56.97,,
1257.696,-56.9,,
1257.711,-56.94,,
1257.726,-56.65,,
1257.741,-56.66,,
1257.756,-56.7,,
1257.771,-56.59,,
1257.786,-56.55,,
1257.801,-56.57,,
1257.816,-56.58,,
1257.831,-56.55,,
1257.846,-56.82,,
1257.861,-56.79,,
1257.876,-56.86,,
1257.891,-56.8,,
1257.906,-57.05,,
1257.921,-57.13,,
1257.936,-57.16,,
1257.951,-57.08,,
1257.966,-57.03,,
1257.981,-57.06,,
1257.996,-57.06,,
1258.011,-56.99,,
1258.026,-57.11,,
1258.041,-57.11,,
1258.056,-57.15,,
1258.071,-57.12,,
1258.086,-57.21,,
1258.101,-57.19,,
1258.116,-57.12,,
1258.131,-57.23,,
1258.146,-57.36,,
1258.161,-57.43,,
1258.176,-57.32,,
1258.191,-57.35,,
1258.206,-57.07,,
1258.221,-57.19,,
1258.236,-57.31,,
1258.251,-57.18,,
1258.266,-57.09,,
1258.281,-57.08,,
1258.296,-57.24,,
1258.311,-56.94,,
1258.326,-57.05,,
1258.341,-56.98,,
1258.356,-57.05,,
1258.371,-56.88,,
1258.386,-57.03,,
1258.401,-57.1,,
1258.416,-56.9,,
1258.431,-57.0,,
1258.446,-56.97,,
1258.461,-56.97,,
1258.476,-57.04,,
1258.491,-57.33,,
1258.506,-57.4,,
1258.521,-57.43,,
1258.536,-57.36,,
1258.551,-57.29,,
1258.566,-57.32,,
1258.581,-57.43,,
1258.596,-57.51,,
1258.611,-57.12,,
1258.626,-57.11,,
1258.641,-57.14,,
1258.656,-57.24,,
1258.671,-57.28,,
1258.686,-57.12,,
1258.701,-57.05,,
1258.716,-56.96,,
1258.731,-57.26,,
1258.746,-57.21,,
1258.761,-57.13,,
1258.776,-57.16,,
1258.791,-57.26,,
1258.806,-57.22,,
1258.821,-57.28,,
1258.836,-57.33,,
1258.851,-56.95,,
1258.866,-57.02,,
1258.881,-57.11,,
1258.896,-57.18,,
1258.911,-56.9,,
1258.926,-56.94,,
1258.941,-56.88,,
1258.956,-56.89,,
1258.971,-57.1,,
1258.986,-57.04,,
1259.001,-56.97,,
1259.016,-56.96,,
1259.031,-57.12,,
1259.046,-57.09,,
1259.061,-57.03,,
1259.076,-57.06,,
1259.091,-57.0,,
1259.106,-56.9,,
1259.121,-56.87,,
1259.136,-57.01,,
1259.151,-56.67,,
1259.166,-56.63,,
1259.181,-56.68,,
1259.196,-56.67,,
1259.211,-56.81,,
1259.226,-56.79,,
1259.241,-56.74,,
1259.256,-56.74,,
1259.271,-57.09,,
1259.286,-56.96,,
1259.301,-56.92,,
1259.316,-56.96,,
1259.331,-57.04,,
1259.346,-57.13,,
1259.361,-57.07,,
1259.376,-57.01,,
1259.391,-56.72,,
1259.406,-56.7,,
1259.421,-56.8,,
1259.436,-56.89,,
1259.451,-56.55,,
1259.466,-56.5,,
1259.481,-56.54,,
1259.496,-56.49,,
1259.511,-56.71,,
1259.526,-56.68,,
1259.541,-56.52,,
1259.556,-56.47,,
1259.571,-56.82,,
1259.586,-56.87,,
1259.601,-56.75,,
1259.616,-56.7,,
1259.631,-56.62,,
1259.646,-56.64,,
1259.661,-56.56,,
1259.676,-56.54,,
1259.691,-56.28,,
1259.706,-56.25,,
1259.721,-56.28,,
1259.736,-56.36,,
1259.751,-56.37,,
1259.766,-56.24,,
1259.781,-56.29,,
1259.796,-56.3,,
1259.811,-56.65,,
1259.826,-56.64,,
1259.841,-56.53,,
1259.856,-56.47,,
1259.871,-56.64,,
1259.886,-56.67,,
1259.901,-56.67,,
1259.916,-56.67,,
1259.931,-56.45,,
1259.946,-56.51,,
1259.961,-56.63,,
1259.976,-56.65,,
1259.991,-56.25,,
1260.006,-56.19,,
1260.021,-56.25,,
1260.036,-56.29,,
1260.051,-56.38,,
1260.066,-56.45,,
1260.081,-56.22,,
1260.096,-56.22,,
1260.111,-56.64,,
1260.126,-56.79,,
1260.141,-56.61,,
1260.156,-56.47,,
1260.171,-56.49,,
1260.186,-56.67,,
1260.201,-56.82,,
1260.216,-56.69,,
1260.231,-56.39,,
1260.246,-56.4,,
1260.261,-56.51,,
1260.276,-56.59,,
1260.291,-56.45,,
1260.306,-56.31,,
1260.321,-56.37,,
1260.336,-56.36,,
1260.351,-56.57,,
1260.366,-56.6,,
1260.381,-56.47,,
1260.396,-56.36,,
1260.411,-56.61,,
1260.426,-56.65,,
1260.441,-56.57,,
1260.456,-56.62,,
1260.471,-56.58,,
1260.486,-56.6,,
1260.501,-56.77,,
1260.516,-56.81,,
1260.531,-56.46,,
1260.546,-56.49,,
1260.561,-56.57,,
1260.576,-56.5,,
1260.591,-56.69,,
1260.606,-56.67,,
1260.621,-56.48,,
1260.636,-56.53,,
1260.651,-56.84,,
1260.666,-56.92,,
1260.681,-56.96,,
1260.696,-56.86,,
1260.711,-56.85,,
1260.726,-57.21,,
1260.741,-57.25,,
1260.756,-57.15,,
1260.771,-56.94,,
1260.786,-56.97,,
1260.801,-56.97,,
1260.816,-56.9,,
1260.831,-56.72,,
1260.846,-56.51,,
1260.861,-56.6,,
1260.876,-56.59,,
1260.891,-56.89,,
1260.906,-56.65,,
1260.921,-56.52,,
1260.936,-56.51,,
1260.951,-56.69,,
1260.966,-56.89,,
1260.981,-56.57,,
1260.996,-56.67,,
1261.011,-56.69,,
1261.026,-56.76,,
1261.041,-56.89,,
1261.056,-56.99,,
1261.071,-56.56,,
1261.086,-56.6,,
1261.101,-56.86,,
1261.116,-56.76,,
1261.131,-56.73,,
1261.146,-56.52,,
1261.161,-56.59,,
1261.176,-56.88,,
1261.191,-57.14,,
1261.206,-56.92,,
1261.221,-56.79,,
1261.236,-56.83,,
1261.251,-56.94,,
1261.266,-57.29,,
1261.281,-56.94,,
1261.297,-56.77,,
1261.312,-56.57,,
1261.326,-56.74,,
1261.341,-57.09,,
1261.356,-56.86,,
1261.371,-56.69,,
1261.386,-56.48,,
1261.401,-56.71,,
1261.417,-56.87,,
1261.432,-56.86,,
1261.447,-56.71,,
1261.461,-56.51,,
1261.476,-56.67,,
1261.491,-56.98,,
1261.506,-57.09,,
1261.521,-56.79,,
1261.536,-56.8,,
1261.552,-56.98,,
1261.567,-57.11,,
1261.582,-57.28,,
1261.597,-56.94,,
1261.611,-56.63,,
1261.626,-56.65,,
1261.641,-56.92,,
1261.656,-56.87,,
1261.672,-56.65,,
1261.687,-56.39,,
1261.702,-56.32,,
1261.717,-56.48,,
1261.732,-56.56,,
1261.746,-56.61,,
1261.761,-56.5,,
1261.776,-56.48,,
1261.792,-56.62,,
1261.807,-56.69,,
1261.822,-56.87,,
1261.837,-56.62,,
1261.852,-56.7,,
1261.867,-56.78,,
1261.882,-56.99,,
1261.896,-56.91,,
1261.911,-56.74,,
1261.927,-56.8,,
1261.942,-56.83,,
1261.957,-57.03,,
1261.972,-56.85,,
1261.987,-57.09,,
1262.002,-56.84,,
1262.017,-56.84,,
1262.031,-57.05,,
1262.047,-57.01,,
1262.062,-56.82,,
1262.077,-56.74,,
1262.092,-56.87,,
1262.107,-56.65,,
1262.122,-56.75,,
1262.137,-56.66,,
1262.152,-56.57,,
1262.167,-56.58,,
1262.182,-56.54,,
1262.197,-56.57,,
1262.212,-56.5,,
1262.227,-56.53,,
1262.242,-56.41,,
1262.257,-56.54,,
1262.272,-56.5,,
1262.287,-56.61,,
1262.302,-56.64,,
1262.317,-56.82,,
1262.332,-56.82,,
1262.347,-56.56,,
1262.362,-56.81,,
1262.377,-56.56,,
1262.392,-56.56,,
1262.407,-56.61,,
1262.422,-56.45,,
1262.437,-56.75,,
1262.452,-56.56,,
1262.467,-56.71,,
1262.482,-56.62,,
1262.497,-56.63,,
1262.512,-56.59,,
1262.527,-56.81,,
1262.542,-56.69,,
1262.557,-56.46,,
1262.572,-56.62,,
1262.587,-56.51,,
1262.602,-56.71,,
1262.617,-56.59,,
1262.632,-56.67,,
1262.647,-56.84,,
1262.662,-56.85,,
1262.677,-56.92,,
1262.692,-56.77,,
1262.707,-56.99,,
1262.722,-57.0,,
1262.737,-57.14,,
1262.752,-56.77,,
1262.767,-56.7,,
1262.782,-56.72,,
1262.797,-56.83,,
1262.812,-57.12,,
1262.827,-56.74,,
1262.842,-56.74,,
1262.857,-56.64,,
1262.872,-56.86,,
1262.887,-56.91,,
1262.902,-56.61,,
1262.917,-56.59,,
1262.932,-56.54,,
1262.947,-56.92,,
1262.962,-56.75,,
1262.977,-56.81,,
1262.992,-56.41,,
1263.007,-56.52,,
1263.022,-56.9,,
1263.037,-57.04,,
1263.052,-56.88,,
1263.067,-56.57,,
1263.082,-56.79,,
1263.097,-56.97,,
1263.112,-57.33,,
1263.127,-57.02,,
1263.142,-56.82,,
1263.157,-57.07,,
1263.172,-57.27,,
1263.187,-57.42,,
1263.202,-56.92,,
1263.217,-56.86,,
1263.232,-56.7,,
1263.247,-56.96,,
1263.262,-57.17,,
1263.277,-56.87,,
1263.292,-56.62,,
1263.307,-56.52,,
1263.322,-56.66,,
1263.337,-56.85,,
1263.352,-56.66,,
1263.367,-56.35,,
1263.382,-56.31,,
1263.397,-56.71,,
1263.412,-56.85,,
1263.427,-56.97,,
1263.442,-56.49,,
1263.457,-56.57,,
1263.472,-56.8,,
1263.487,-57.09,,
1263.502,-56.91,,
1263.517,-56.67,,
1263.532,-56.42,,
1263.547,-56.53,,
1263.562,-56.8,,
1263.577,-56.64,,
1263.592,-56.38,,
1263.607,-56.29,,
1263.622,-56.29,,
1263.637,-56.69,,
1263.652,-56.44,,
1263.667,-56.12,,
1263.682,-55.94,,
1263.697,-56.15,,
1263.712,-56.33,,
1263.727,-56.24,,
1263.742,-56.04,,
1263.757,-55.94,,
1263.772,-56.13,,
1263.787,-56.38,,
1263.802,-56.44,,
1263.817,-56.07,,
1263.832,-55.99,,
1263.847,-56.17,,
1263.862,-56.38,,
1263.877,-56.37,,
1263.892,-56.11,,
1263.907,-56.09,,
1263.922,-56.39,,
1263.937,-56.63,,
1263.952,-56.4,,
1263.967,-56.2,,
1263.982,-56.14,,
1263.997,-56.2,,
1264.012,-56.53,,
1264.027,-56.37,,
1264.042,-56.02,,
1264.057,-56.0,,
1264.072,-56.2,,
1264.087,-56.38,,
1264.102,-56.17,,
1264.117,-55.85,,
1264.132,-55.87,,
1264.147,-56.07,,
1264.162,-56.16,,
1264.177,-56.03,,
1264.192,-55.83,,
1264.207,-55.83,,
1264.222,-55.93,,
1264.237,-56.14,,
1264.252,-56.27,,
1264.267,-55.96,,
1264.282,-55.99,,
1264.297,-56.13,,
1264.312,-56.15,,
1264.327,-56.28,,
1264.342,-55.95,,
1264.357,-56.06,,
1264.372,-56.39,,
1264.387,-56.76,,
1264.402,-56.59,,
1264.417,-56.34,,
1264.432,-56.18,,
1264.447,-56.28,,
1264.462,-56.52,,
1264.477,-56.34,,
1264.492,-56.06,,
1264.507,-55.89,,
1264.522,-55.95,,
1264.537,-56.2,,
1264.552,-56.05,,
1264.567,-55.82,,
1264.582,-55.66,,
1264.597,-55.88,,
1264.612,-55.99,,
1264.627,-55.97,,
1264.642,-55.8,,
1264.657,-55.66,,
1264.672,-55.85,,
1264.687,-56.07,,
1264.702,-56.2,,
1264.717,-55.89,,
1264.732,-55.91,,
1264.747,-56.02,,
1264.762,-56.27,,
1264.777,-56.32,,
1264.792,-56.05,,
1264.807,-55.72,,
1264.822,-55.97,,
1264.837,-56.11,,
1264.852,-56.25,,
1264.867,-56.04,,
1264.882,-55.83,,
1264.897,-55.83,,
1264.912,-56.1,,
1264.927,-55.94,,
1264.942,-55.75,,
1264.957,-55.66,,
1264.972,-55.71,,
1264.987,-55.91,,
1265.002,-56.05,,
1265.017,-55.96,,
1265.032,-55.76,,
1265.047,-55.75,,
1265.062,-55.87,,
1265.077,-55.99,,
1265.092,-55.93,,
1265.107,-55.86,,
1265.122,-55.94,,
1265.137,-56.22,,
1265.152,-56.34,,
1265.167,-56.14,,
1265.182,-56.08,,
1265.197,-56.17,,
1265.212,-56.32,,
1265.227,-56.55,,
1265.242,-56.42,,
1265.257,-56.13,,
1265.272,-56.26,,
1265.287,-56.21,,
1265.302,-56.27,,
1265.317,-56.2,,
1265.332,-56.02,,
1265.347,-56.08,,
1265.362,-56.25,,
1265.377,-56.24,,
1265.392,-55.92,,
1265.407,-55.83,,
1265.422,-55.85,,
1265.437,-56.04,,
1265.452,-56.23,,
1265.467,-56.16,,
1265.482,-56.06,,
1265.497,-56.1,,
1265.512,-56.48,,
1265.527,-56.63,,
1265.542,-56.46,,
1265.557,-56.41,,
1265.572,-56.58,,
1265.587,-56.99,,
1265.602,-57.17,,
1265.617,-56.83,,
1265.632,-56.77,,
1265.647,-56.9,,
1265.662,-57.04,,
1265.677,-57.13,,
1265.692,-57.1,,
1265.707,-56.76,,
1265.722,-56.72,,
1265.737,-56.94,,
1265.752,-57.07,,
1265.767,-56.98,,
1265.782,-56.53,,
1265.797,-56.6,,
1265.812,-56.93,,
1265.827,-56.96,,
1265.842,-56.78,,
1265.857,-56.41,,
1265.872,-56.37,,
1265.887,-56.61,,
1265.902,-56.86,,
1265.917,-56.88,,
1265.932,-56.67,,
1265.947,-56.69,,
1265.962,-56.88,,
1265.977,-57.13,,
1265.992,-57.03,,
1266.007,-56.75,,
1266.022,-56.53,,
1266.037,-56.83,,
1266.052,-57.25,,
1266.067,-57.19,,
1266.082,-56.96,,
1266.097,-56.7,,
1266.112,-56.67,,
1266.127,-57.04,,
1266.142,-56.88,,
1266.157,-56.49,,
1266.172,-56.31,,
1266.187,-56.43,,
1266.202,-56.59,,
1266.217,-56.6,,
1266.232,-56.36,,
1266.247,-56.21,,
1266.262,-56.33,,
1266.277,-56.59,,
1266.292,-56.66,,
1266.307,-56.47,,
1266.322,-56.45,,
1266.337,-56.56,,
1266.352,-56.9,,
1266.367,-57.09,,
1266.382,-56.78,,
1266.397,-56.73,,
1266.412,-56.87,,
1266.427,-57.08,,
1266.442,-57.22,,
1266.457,-57.05,,
1266.472,-56.75,,
1266.487,-56.91,,
1266.502,-57.01,,
1266.517,-56.84,,
1266.532,-56.73,,
1266.547,-56.54,,
1266.562,-56.6,,
1266.577,-56.8,,
1266.592,-56.66,,
1266.607,-56.35,,
1266.622,-56.29,,
1266.637,-56.43,,
1266.652,-56.44,,
1266.667,-56.58,,
1266.682,-56.44,,
1266.697,-56.24,,
1266.712,-56.29,,
1266.727,-56.58,,
1266.742,-56.57,,
1266.757,-56.28,,
1266.772,-56.14,,
1266.787,-56.3,,
1266.802,-56.57,,
1266.817,-56.41,,
1266.832,-56.19,,
1266.847,-56.18,,
1266.862,-56.31,,
1266.877,-56.62,,
1266.892,-56.46,,
1266.907,-56.35,,
1266.922,-56.07,,
1266.937,-56.33,,
1266.952,-56.52,,
1266.967,-56.55,,
1266.982,-56.46,,
1266.997,-56.28,,
1267.012,-56.55,,
1267.027,-56.74,,
1267.042,-56.68,,
1267.057,-56.36,,
1267.072,-56.2,,
1267.087,-56.59,,
1267.102,-56.74,,
1267.117,-56.92,,
1267.132,-56.54,,
1267.147,-56.56,,
1267.162,-56.89,,
1267.177,-57.11,,
1267.192,-57.22,,
1267.207,-56.87,,
1267.222,-56.95,,
1267.237,-57.03,,
1267.252,-57.42,,
1267.267,-57.35,,
1267.282,-56.87,,
1267.297,-57.16,,
1267.312,-57.23,,
1267.327,-57.5,,
1267.342,-57.35,,
1267.357,-57.09,,
1267.372,-57.06,,
1267.387,-57.18,,
1267.402,-57.48,,
1267.417,-57.2,,
1267.432,-57.19,,
1267.447,-56.84,,
1267.462,-56.99,,
1267.477,-57.14,,
1267.492,-56.84,,
1267.507,-56.89,,
1267.522,-56.78,,
1267.537,-57.0,,
1267.552,-56.94,,
1267.567,-56.96,,
1267.582,-56.75,,
1267.597,-56.69,,
1267.612,-56.93,,
1267.627,-56.94,,
1267.642,-57.01,,
1267.657,-56.85,,
1267.672,-56.87,,
1267.687,-56.96,,
1267.702,-56.95,,
1267.717,-56.95,,
1267.732,-56.66,,
1267.747,-56.88,,
1267.762,-56.9,,
1267.777,-56.85,,
1267.792,-56.75,,
1267.807,-56.54,,
1267.822,-56.78,,
1267.837,-56.79,,
1267.852,-56.73,,
1267.867,-56.74,,
1267.882,-56.49,,
1267.897,-56.74,,
1267.912,-56.68,,
1267.927,-56.86,,
1267.942,-56.59,,
1267.957,-56.5,,
1267.972,-56.49,,
1267.987,-56.38,,
1268.002,-56.45,,
1268.017,-56.29,,
1268.032,-56.41,,
1268.047,-56.36,,
1268.062,-56.66,,
1268.077,-56.66,,
1268.092,-56.38,,
1268.107,-56.3,,
1268.122,-56.35,,
1268.137,-56.61,,
1268.152,-56.41,,
1268.167,-56.25,,
1268.182,-56.19,,
1268.197,-56.12,,
1268.212,-56.39,,
1268.227,-56.25,,
1268.242,-56.15,,
1268.257,-56.05,,
1268.272,-56.08,,
1268.287,-56.4,,
1268.302,-56.13,,
1268.317,-56.05,,
1268.332,-55.85,,
1268.347,-56.16,,
1268.362,-56.23,,
1268.377,-55.91,,
1268.392,-55.89,,
1268.407,-55.78,,
1268.422,-56.04,,
1268.437,-55.92,,
1268.452,-55.93,,
1268.467,-55.94,,
1268.482,-55.9,,
1268.497,-56.25,,
1268.512,-56.05,,
1268.527,-56.0,,
1268.542,-55.78,,
1268.557,-55.96,,
1268.572,-56.24,,
1268.587,-56.13,,
1268.602,-56.06,,
1268.617,-55.81,,
1268.632,-55.97,,
1268.647,-56.08,,
1268.662,-56.08,,
1268.677,-56.0,,
1268.692,-55.8,,
1268.707,-55.98,,
1268.722,-56.13,,
1268.737,-56.13,,
1268.752,-55.88,,
1268.767,-55.82,,
1268.782,-56.07,,
1268.797,-56.17,,
1268.812,-56.27,,
1268.827,-56.08,,
1268.842,-55.98,,
1268.857,-56.41,,
1268.872,-56.4,,
1268.887,-56.61,,
1268.902,-56.25,,
1268.917,-56.34,,
1268.932,-56.56,,
1268.947,-56.81,,
1268.962,-56.88,,
1268.977,-56.47,,
1268.992,-56.64,,
1269.007,-56.81,,
1269.022,-57.13,,
1269.037,-56.91,,
1269.052,-56.69,,
1269.067,-56.56,,
1269.082,-56.84,,
1269.097,-57.05,,
1269.112,-56.9,,
1269.127,-56.62,,
1269.142,-56.61,,
1269.157,-56.79,,
1269.172,-57.1,,
1269.188,-56.83,,
1269.202,-56.92,,
1269.217,-56.87,,
1269.232,-57.01,,
1269.247,-57.16,,
1269.262,-56.88,,
1269.277,-57.02,,
1269.292,-56.74,,
1269.307,-57.16,,
1269.323,-57.13,,
1269.338,-57.09,,
1269.352,-56.98,,
1269.367,-56.8,,
1269.382,-57.3,,
1269.397,-57.12,,
1269.412,-57.02,,
1269.427,-56.71,,
1269.443,-56.76,,
1269.458,-57.14,,
1269.473,-56.83,,
1269.487,-56.82,,
1269.502,-56.42,,
1269.517,-56.64,,
1269.532,-56.94,,
1269.547,-56.99,,
1269.563,-56.82,,
1269.578,-56.49,,
1269.593,-56.84,,
1269.608,-57.04,,
1269.623,-57.09,,
1269.637,-56.83,,
1269.652,-56.73,,
1269.667,-57.18,,
1269.682,-57.19,,
1269.698,-57.2,,
1269.713,-56.93,,
1269.728,-56.7,,
1269.743,-57.1,,
1269.758,-57.25,,
1269.772,-57.43,,
1269.787,-57.03,,
1269.802,-57.15,,
1269.818,-57.43,,
1269.833,-57.31,,
1269.848,-57.5,,
1269.863,-57.07,,
1269.878,-57.23,,
1269.893,-57.24,,
1269.908,-57.67,,
1269.922,-57.64,,
1269.938,-57.19,,
1269.953,-57.25,,
1269.968,-57.25,,
1269.983,-57.7,,
1269.998,-57.49,,
1270.013,-57.3,,
1270.028,-57.21,,
1270.043,-57.21,,
1270.058,-57.46,,
1270.073,-57.2,,
1270.088,-57.09,,
1270.103,-57.08,,
1270.118,-57.31,,
1270.133,-57.48,,
1270.148,-57.21,,
1270.163,-57.33,,
1270.178,-57.06,,
1270.193,-57.32,,
1270.208,-57.16,,
1270.223,-56.98,,
1270.238,-57.09,,
1270.253,-56.93,,
1270.268,-57.26,,
1270.283,-56.97,,
1270.298,-57.07,,
1270.313,-56.97,,
1270.328,-56.93,,
1270.343,-57.24,,
1270.358,-56.92,,
1270.373,-57.01,,
1270.388,-56.65,,
1270.403,-56.85,,
1270.418,-57.0,,
1270.433,-56.94,,
1270.448,-57.02,,
1270.463,-56.72,,
1270.478,-57.0,,
1270.493,-57.09,,
1270.508,-57.09,,
1270.523,-56.96,,
1270.538,-56.74,,
1270.553,-57.08,,
1270.568,-56.99,,
1270.583,-57.05,,
1270.598,-56.75,,
1270.613,-56.74,,
1270.628,-56.87,,
1270.643,-56.98,,
1270.658,-57.05,,
1270.673,-56.61,,
1270.688,-56.69,,
1270.703,-56.76,,
1270.718,-56.7,,
1270.733,-56.8,,
1270.748,-56.5,,
1270.763,-56.61,,
1270.778,-56.54,,
1270.793,-56.82,,
1270.808,-56.7,,
1270.823,-56.41,,
1270.838,-56.65,,
1270.853,-56.73,,
1270.868,-57.02,,
1270.883,-56.81,,
1270.898,-56.69,,
1270.913,-56.72,,
1270.928,-56.68,,
1270.943,-56.97,,
1270.958,-56.66,,
1270.973,-56.55,,
1270.988,-56.58,,
1271.003,-56.79,,
1271.018,-56.8,,
1271.033,-56.51,,
1271.048,-56.44,,
1271.063,-56.6,,
1271.078,-56.9,,
1271.093,-56.89,,
1271.108,-56.62,,
1271.123,-56.37,,
1271.138,-56.28,,
1271.153,-56.66,,
1271.168,-56.59,,
1271.183,-56.47,,
1271.198,-56.45,,
1271.213,-56.6,,
1271.228,-56.93,,
1271.243,-56.62,,
1271.258,-56.64,,
1271.273,-56.3,,
1271.288,-56.57,,
1271.303,-56.8,,
1271.318,-56.47,,
1271.333,-56.41,,
1271.348,-56.08,,
1271.363,-56.31,,
1271.378,-56.38,,
1271.393,-56.4,,
1271.408,-56.17,,
1271.423,-56.06,,
1271.438,-56.33,,
1271.453,-56.4,,
1271.468,-56.33,,
1271.483,-56.1,,
1271.498,-55.98,,
1271.513,-56.29,,
1271.528,-56.32,,
1271.543,-56.37,,
1271.558,-56.01,,
1271.573,-56.1,,
1271.588,-56.32,,
1271.603,-56.36,,
1271.618,-56.16,,
1271.633,-56.01,,
1271.648,-56.17,,
1271.663,-56.27,,
1271.678,-56.25,,
1271.693,-56.11,,
1271.708,-55.94,,
1271.723,-56.24,,
1271.738,-56.3,,
1271.753,-56.31,,
1271.768,-56.11,,
1271.783,-56.09,,
1271.798,-56.13,,
1271.813,-56.15,,
1271.828,-56.01,,
1271.843,-55.83,,
1271.858,-55.74,,
1271.873,-55.73,,
1271.888,-55.68,,
1271.903,-55.75,,
1271.918,-55.5,,
1271.933,-55.58,,
1271.948,-55.58,,
1271.963,-55.54,,
1271.978,-55.62,,
1271.993,-55.43,,
1272.008,-55.4,,
1272.023,-55.36,,
1272.038,-55.36,,
1272.053,-55.48,,
1272.068,-55.29,,
1272.083,-55.35,,
1272.098,-55.27,,
1272.113,-55.22,,
1272.128,-55.25,,
1272.143,-55.29,,
1272.158,-55.33,,
1272.173,-55.27,,
1272.188,-55.19,,
1272.203,-55.2,,
1272.218,-55.21,,
1272.233,-55.19,,
1272.248,-55.16,,
1272.263,-55.11,,
1272.278,-55.4,,
1272.293,-55.39,,
1272.308,-55.36,,
1272.323,-55.37,,
1272.338,-55.33,,
1272.353,-55.62,,
1272.368,-55.55,,
1272.383,-55.61,,
1272.398,-55.59,,
1272.413,-55.67,,
1272.428,-55.71,,
1272.443,-55.76,,
1272.458,-55.67,,
1272.473,-55.69,,
1272.488,-55.86,,
1272.503,-55.92,,
1272.518,-55.91,,
1272.533,-55.9,,
1272.548,-55.78,,
1272.563,-56.0,,
1272.578,-56.03,,
1272.593,-56.05,,
1272.608,-55.97,,
1272.623,-55.91,,
1272.638,-56.1,,
1272.653,-56.04,,
1272.668,-56.11,,
1272.683,-56.08,,
1272.698,-56.01,,
1272.713,-56.3,,
1272.728,-56.28,,
1272.743,-56.33,,
1272.758,-56.26,,
1272.773,-56.33,,
1272.788,-56.59,,
1272.803,-56.48,,
1272.818,-56.54,,
1272.833,-56.54,,
1272.848,-56.67,,
1272.863,-57.12,,
1272.878,-56.83,,
1272.893,-57.03,,
1272.908,-56.82,,
1272.923,-56.91,,
1272.938,-57.06,,
1272.953,-56.93,,
1272.968,-57.03,,
1272.983,-56.89,,
1272.998,-57.05,,
1273.013,-57.13,,
1273.028,-57.33,,
1273.043,-57.42,,
1273.058,-57.21,,
1273.073,-57.5,,
1273.088,-57.31,,
1273.103,-57.46,,
1273.118,-57.64,,
1273.133,-57.48,,
1273.148,-57.64,,
1273.163,-57.33,,
1273.178,-57.48,,
1273.193,-57.57,,
1273.208,-57.4,,
1273.223,-57.56,,
1273.238,-57.31,,
1273.253,-57.53,,
1273.268,-57.47,,
1273.283,-57.23,,
1273.298,-57.44,,
1273.313,-57.21,,
1273.328,-57.35,,
1273.343,-57.3,,
1273.358,-57.06,,
1273.373,-57.34,,
1273.388,-57.33,,
1273.403,-57.29,,
1273.418,-57.19,,
1273.433,-57.31,,
1273.448,-57.38,,
1273.463,-57.41,,
1273.478,-57.49,,
1273.493,-57.33,,
1273.508,-57.56,,
1273.523,-57.55,,
1273.538,-57.62,,
1273.553,-57.64,,
1273.568,-57.51,,
1273.583,-57.75,,
1273.598,-57.59,,
1273.613,-57.78,,
1273.628,-57.87,,
1273.643,-57.67,,
1273.658,-58.14,,
1273.673,-57.92,,
1273.688,-58.24,,
1273.703,-58.2,,
1273.718,-57.97,,
1273.733,-58.13,,
1273.748,-58.03,,
1273.763,-58.26,,
1273.778,-58.23,,
1273.793,-57.96,,
1273.808,-58.17,,
1273.823,-58.26,,
1273.838,-58.48,,
1273.853,-58.31,,
1273.868,-57.99,,
1273.883,-58.15,,
1273.898,-58.23,,
1273.913,-58.25,,
1273.928,-58.12,,
1273.943,-58.01,,
1273.958,-58.03,,
1273.973,-58.24,,
1273.988,-58.29,,
1274.003,-58.29,,
1274.018,-58.34,,
1274.033,-57.99,,
1274.048,-58.08,,
1274.063,-58.3,,
1274.078,-58.15,,
1274.093,-58.15,,
1274.108,-58.05,,
1274.123,-58.37,,
1274.138,-58.36,,
1274.153,-58.14,,
1274.168,-58.4,,
1274.183,-58.24,,
1274.198,-58.67,,
1274.213,-58.51,,
1274.228,-58.32,,
1274.243,-58.47,,
1274.258,-58.23,,
1274.273,-58.58,,
1274.288,-58.57,,
1274.303,-58.34,,
1274.318,-58.53,,
1274.333,-58.24,,
1274.348,-58.54,,
1274.363,-58.61,,
1274.378,-58.38,,
1274.393,-58.38,,
1274.408,-58.67,,
1274.423,-58.81,,
1274.438,-58.81,,
1274.453,-58.55,,
1274.468,-58.63,,
1274.483,-58.85,,
1274.498,-58.87,,
1274.513,-58.63,,
1274.528,-58.48,,
1274.543,-58.35,,
1274.558,-58.88,,
1274.573,-58.81,,
1274.588,-58.43,,
1274.603,-58.51,,
1274.618,-58.46,,
1274.633,-58.81,,
1274.648,-58.97,,
1274.663,-58.42,,
1274.678,-58.46,,
1274.693,-58.29,,
1274.708,-58.68,,
1274.723,-58.8,,
1274.738,-58.52,,
1274.753,-58.63,,
1274.768,-58.55,,
1274.783,-59.0,,
1274.798,-58.93,,
1274.813,-58.57,,
1274.828,-58.49,,
1274.843,-58.4,,
1274.858,-58.85,,
1274.873,-58.71,,
1274.888,-58.52,,
1274.903,-58.54,,
1274.918,-58.38,,
1274.933,-58.87,,
1274.948,-58.58,,
1274.963,-58.33,,
1274.978,-58.13,,
1274.993,-58.18,,
1275.008,-58.45,,
1275.023,-58.08,,
1275.038,-58.04,,
1275.053,-58.14,,
1275.068,-58.36,,
1275.083,-58.46,,
1275.098,-58.21,,
1275.113,-58.31,,
1275.128,-58.05,,
1275.143,-58.29,,
1275.158,-58.39,,
1275.173,-58.23,,
1275.188,-58.28,,
1275.203,-58.0,,
1275.218,-58.34,,
1275.233,-58.38,,
1275.248,-58.2,,
1275.263,-58.46,,
1275.278,-58.17,,
1275.293,-58.57,,
1275.308,-58.41,,
1275.323,-57.97,,
1275.338,-58.37,,
1275.353,-58.23,,
1275.368,-58.35,,
1275.383,-58.26,,
1275.398,-58.05,,
1275.413,-58.05,,
1275.428,-57.77,,
1275.443,-57.83,,
1275.458,-57.87,,
1275.473,-57.67,,
1275.488,-57.49,,
1275.503,-57.27,,
1275.518,-57.37,,
1275.533,-57.22,,
1275.548,-57.38,,
1275.563,-57.02,,
1275.578,-56.9,,
1275.593,-57.02,,
1275.608,-56.97,,
1275.623,-57.15,,
1275.638,-56.79,,
1275.653,-56.76,,
1275.668,-56.74,,
1275.683,-56.79,,
1275.698,-56.99,,
1275.713,-56.63,,
1275.728,-56.65,,
1275.743,-56.58,,
1275.758,-56.58,,
1275.773,-56.56,,
1275.788,-56.15,,
1275.803,-56.22,,
1275.818,-56.26,,
1275.833,-56.3,,
1275.848,-56.25,,
1275.863,-55.98,,
1275.878,-55.96,,
1275.893,-55.98,,
1275.908,-55.93,,
1275.923,-56.04,,
1275.938,-55.81,,
1275.953,-55.85,,
1275.968,-56.01,,
1275.983,-56.15,,
1275.998,-56.07,,
1276.013,-55.88,,
1276.028,-55.88,,
1276.043,-55.99,,
1276.058,-56.02,,
1276.073,-55.79,,
1276.088,-55.64,,
1276.103,-55.72,,
1276.118,-55.79,,
1276.133,-55.72,,
1276.148,-55.42,,
1276.163,-55.41,,
1276.178,-55.43,,
1276.193,-55.53,,
1276.208,-55.5,,
1276.223,-55.27,,
1276.238,-55.3,,
1276.253,-55.33,,
1276.268,-55.33,,
1276.283,-55.35,,
1276.298,-55.18,,
1276.313,-55.33,,
1276.328,-55.43,,
1276.343,-55.46,,
1276.358,-55.38,,
1276.373,-55.22,,
1276.388,-55.21,,
1276.403,-55.32,,
1276.418,-55.28,,
1276.433,-55.24,,
1276.448,-55.27,,
1276.463,-55.23,,
1276.478,-55.26,,
1276.493,-55.32,,
1276.508,-55.33,,
1276.523,-55.33,,
1276.538,-55.36,,
1276.553,-55.36,,
1276.568,-55.45,,
1276.583,-55.4,,
1276.598,-55.41,,
1276.613,-55.7,,
1276.628,-55.62,,
1276.643,-55.7,,
1276.658,-55.54,,
1276.673,-55.72,,
1276.688,-55.92,,
1276.703,-55.78,,
1276.718,-55.79,,
1276.733,-55.64,,
1276.748,-55.83,,
1276.763,-55.87,,
1276.778,-55.88,,
1276.793,-55.86,,
1276.808,-55.78,,
1276.823,-56.1,,
1276.838,-56.07,,
1276.853,-56.13,,
1276.868,-56.13,,
1276.883,-56.14,,
1276.898,-56.46,,
1276.913,-56.36,,
1276.928,-56.15,,
1276.943,-56.14,,
1276.958,-56.19,,
1276.973,-56.45,,
1276.988,-56.22,,
1277.003,-56.13,,
1277.018,-56.15,,
1277.033,-56.28,,
1277.048,-56.57,,
1277.063,-56.29,,
1277.078,-56.21,,
1277.093,-56.17,,
1277.108,-56.34,,
1277.123,-56.41,,
1277.138,-56.16,,
1277.153,-56.26,,
1277.168,-56.5,,
1277.183,-56.74,,
1277.198,-56.68,,
1277.214,-56.41,,
1277.228,-56.59,,
1277.243,-56.82,,
1277.258,-57.07,,
1277.273,-56.89,,
1277.288,-56.7,,
1277.303,-56.7,,
1277.318,-56.87,,
1277.333,-57.16,,
1277.349,-56.8,,
1277.364,-56.65,,
1277.378,-56.81,,
1277.393,-57.32,,
1277.408,-57.44,,
1277.423,-57.0,,
1277.438,-56.93,,
1277.453,-57.09,,
1277.469,-57.29,,
1277.484,-57.18,,
1277.499,-56.95,,
1277.514,-56.99,,
1277.528,-57.25,,
1277.543,-57.44,,
1277.558,-57.2,,
1277.573,-56.8,,
1277.589,-56.91,,
1277.604,-57.38,,
1277.619,-57.05,,
1277.634,-56.68,,
1277.649,-56.42,,
1277.663,-56.67,,
1277.678,-56.89,,
1277.693,-56.59,,
1277.708,-56.26,,
1277.724,-56.39,,
1277.739,-56.62,,
1277.754,-56.65,,
1277.769,-56.45,,
1277.784,-56.16,,
1277.799,-56.42,,
1277.813,-56.73,,
1277.828,-56.61,,
1277.844,-56.33,,
1277.859,-56.17,,
1277.874,-56.44,,
1277.889,-56.73,,
1277.904,-56.64,,
1277.919,-56.41,,
1277.934,-56.57,,
1277.948,-56.87,,
1277.964,-57.24,,
1277.979,-56.9,,
1277.994,-56.69,,
1278.009,-56.84,,
1278.024,-57.16,,
1278.039,-57.0,,
1278.054,-56.69,,
1278.069,-56.53,,
1278.084,-56.77,,
1278.099,-57.06,,
1278.114,-56.85,,
1278.129,-56.57,,
1278.144,-56.65,,
1278.159,-56.97,,
1278.174,-56.73,,
1278.189,-56.45,,
1278.204,-56.21,,
1278.219,-56.47,,
1278.234,-56.73,,
1278.249,-56.42,,
1278.264,-56.17,,
1278.279,-56.06,,
1278.294,-56.24,,
1278.309,-56.53,,
1278.324,-56.23,,
1278.339,-55.92,,
1278.354,-55.98,,
1278.369,-56.02,,
1278.384,-56.28,,
1278.399,-55.96,,
1278.414,-55.72,,
1278.429,-55.92,,
1278.444,-56.18,,
1278.459,-56.24,,
1278.474,-56.04,,
1278.489,-56.09,,
1278.504,-56.24,,
1278.519,-56.39,,
1278.534,-56.29,,
1278.549,-56.14,,
1278.564,-56.28,,
1278.579,-56.59,,
1278.594,-56.71,,
1278.609,-56.53,,
1278.624,-56.44,,
1278.639,-56.57,,
1278.654,-56.91,,
1278.669,-56.79,,
1278.684,-56.64,,
1278.699,-56.47,,
1278.714,-56.66,,
1278.729,-56.73,,
1278.744,-56.5,,
1278.759,-56.43,,
1278.774,-56.4,,
1278.789,-56.65,,
1278.804,-56.71,,
1278.819,-56.42,,
1278.834,-56.3,,
1278.849,-56.38,,
1278.864,-56.59,,
1278.879,-56.52,,
1278.894,-56.21,,
1278.909,-56.09,,
1278.924,-56.24,,
1278.939,-56.39,,
1278.954,-56.23,,
1278.969,-55.87,,
1278.984,-55.93,,
1278.999,-55.96,,
1279.014,-56.25,,
1279.029,-55.92,,
1279.044,-55.98,,
1279.059,-56.14,,
1279.074,-56.28,,
1279.089,-56.45,,
1279.104,-56.1,,
1279.119,-56.2,,
1279.134,-56.44,,
1279.149,-56.63,,
1279.164,-56.53,,
1279.179,-56.31,,
1279.194,-56.42,,
1279.209,-56.78,,
1279.224,-56.73,,
1279.239,-56.53,,
1279.254,-56.48,,
1279.269,-56.61,,
1279.284,-56.9,,
1279.299,-56.76,,
1279.314,-56.57,,
1279.329,-56.49,,
1279.344,-56.74,,
1279.359,-56.73,,
1279.374,-56.75,,
1279.389,-56.49,,
1279.404,-56.42,,
1279.419,-56.62,,
1279.434,-56.69,,
1279.449,-56.45,,
1279.464,-56.26,,
1279.479,-56.28,,
1279.494,-56.5,,
1279.509,-56.52,,
1279.524,-56.21,,
1279.539,-56.1,,
1279.554,-56.21,,
1279.569,-56.31,,
1279.584,-56.22,,
1279.599,-56.04,,
1279.614,-55.88,,
1279.629,-55.86,,
1279.644,-56.05,,
1279.659,-55.89,,
1279.674,-55.8,,
1279.689,-55.73,,
1279.704,-55.79,,
1279.719,-56.03,,
1279.734,-55.84,,
1279.749,-55.86,,
1279.764,-55.84,,
1279.779,-56.06,,
1279.794,-56.21,,
1279.809,-55.9,,
1279.824,-55.95,,
1279.839,-56.02,,
1279.854,-56.36,,
1279.869,-56.43,,
1279.884,-56.15,,
1279.899,-56.13,,
1279.914,-56.31,,
1279.929,-56.43,,
1279.944,-56.35,,
1279.959,-56.1,,
1279.974,-56.24,,
1279.989,-56.37,,
1280.004,-56.54,,
1280.019,-56.08,,
1280.034,-56.03,,
1280.049,-56.14,,
1280.064,-56.21,,
1280.079,-56.15,,
1280.094,-55.82,,
1280.109,-55.8,,
1280.124,-55.96,,
1280.139,-56.02,,
1280.154,-55.83,,
1280.169,-55.65,,
1280.184,-55.7,,
1280.199,-56.01,,
1280.214,-55.94,,
1280.229,-55.79,,
1280.244,-55.76,,
1280.259,-55.77,,
1280.274,-56.01,,
1280.289,-55.82,,
1280.304,-55.7,,
1280.319,-55.69,,
1280.334,-55.98,,
1280.349,-56.08,,
1280.364,-55.87,,
1280.379,-55.84,,
1280.394,-55.99,,
1280.409,-56.23,,
1280.424,-56.43,,
1280.439,-56.1,,
1280.454,-56.19,,
1280.469,-56.32,,
1280.484,-56.52,,
1280.499,-56.59,,
1280.514,-56.23,,
1280.529,-56.44,,
1280.544,-56.67,,
1280.559,-56.66,,
1280.574,-56.54,,
1280.589,-56.23,,
1280.604,-56.36,,
1280.619,-56.62,,
1280.634,-56.65,,
1280.649,-56.41,,
1280.664,-56.23,,
1280.679,-56.4,,
1280.694,-56.68,,
1280.709,-56.77,,
1280.724,-56.57,,
1280.739,-56.41,,
1280.754,-56.46,,
1280.769,-56.7,,
1280.784,-56.61,,
1280.799,-56.29,,
1280.814,-56.32,,
1280.829,-56.47,,
1280.844,-56.66,,
1280.859,-56.38,,
1280.874,-56.05,,
1280.889,-56.21,,
1280.904,-56.41,,
1280.919,-56.4,,
1280.934,-56.2,,
1280.949,-55.97,,
1280.964,-56.27,,
1280.979,-56.49,,
1280.994,-56.4,,
1281.009,-56.17,,
1281.024,-56.31,,
1281.039,-56.64,,
1281.054,-56.92,,
1281.069,-56.65,,
1281.084,-56.52,,
1281.099,-56.7,,
1281.114,-57.15,,
1281.129,-57.4,,
1281.144,-56.92,,
1281.159,-56.87,,
1281.174,-57.05,,
1281.189,-57.5,,
1281.204,-57.11,,
1281.219,-56.96,,
1281.234,-56.95,,
1281.249,-57.03,,
1281.264,-57.3,,
1281.279,-56.92,,
1281.294,-56.77,,
1281.309,-56.77,,
1281.324,-57.12,,
1281.339,-57.06,,
1281.354,-56.61,,
1281.369,-56.63,,
1281.384,-56.75,,
1281.399,-56.88,,
1281.414,-56.73,,
1281.429,-56.34,,
1281.444,-56.49,,
1281.459,-56.51,,
1281.474,-56.69,,
1281.489,-56.49,,
1281.504,-56.17,,
1281.519,-56.4,,
1281.534,-56.5,,
1281.549,-56.48,,
1281.564,-56.29,,
1281.579,-56.2,,
1281.594,-56.52,,
1281.609,-56.61,,
1281.624,-56.52,,
1281.639,-56.39,,
1281.654,-56.53,,
1281.669,-56.84,,
1281.684,-56.85,,
1281.699,-56.68,,
1281.714,-56.61,,
1281.729,-56.62,,
1281.744,-57.06,,
1281.759,-57.12,,
1281.774,-56.8,,
1281.789,-56.7,,
1281.804,-56.81,,
1281.819,-57.09,,
1281.834,-56.97,,
1281.849,-56.56,,
1281.864,-56.7,,
1281.879,-56.87,,
1281.894,-56.94,,
1281.909,-56.75,,
1281.924,-56.59,,
1281.939,-56.89,,
1281.954,-57.03,,
1281.969,-57.04,,
1281.984,-56.71,,
1281.999,-56.56,,
1282.014,-56.89,,
1282.029,-56.91,,
1282.044,-56.85,,
1282.059,-56.48,,
1282.074,-56.48,,
1282.089,-56.9,,
1282.104,-56.68,,
1282.119,-56.47,,
1282.134,-56.13,,
1282.149,-56.24,,
1282.164,-56.58,,
1282.179,-56.4,,
1282.194,-56.05,,
1282.209,-56.32,,
1282.224,-56.35,,
1282.239,-56.59,,
1282.254,-56.34,,
1282.269,-56.25,,
1282.284,-56.46,,
1282.299,-56.73,,
1282.314,-56.96,,
1282.329,-56.64,,
1282.344,-56.63,,
1282.359,-56.97,,
1282.374,-56.92,,
1282.389,-57.03,,
1282.404,-56.75,,
1282.419,-56.84,,
1282.434,-57.1,,
1282.449,-56.91,,
1282.464,-57.02,,
1282.479,-56.71,,
1282.494,-56.87,,
1282.509,-57.05,,
1282.524,-56.79,,
1282.539,-56.84,,
1282.554,-56.89,,
1282.569,-57.12,,
1282.584,-57.2,,
1282.599,-56.92,,
1282.614,-57.03,,
1282.629,-56.96,,
1282.644,-57.3,,
1282.659,-57.3,,
1282.674,-57.0,,
1282.689,-57.17,,
1282.704,-57.15,,
1282.719,-57.07,,
1282.734,-57.07,,
1282.749,-56.81,,
1282.764,-57.03,,
1282.779,-57.04,,
1282.794,-56.99,,
1282.809,-57.1,,
1282.824,-56.84,,
1282.839,-57.09,,
1282.854,-57.19,,
1282.869,-57.02,,
1282.884,-57.1,,
1282.899,-57.07,,
1282.914,-57.32,,
1282.929,-57.33,,
1282.944,-57.01,,
1282.959,-57.14,,
1282.974,-56.96,,
1282.989,-57.29,,
1283.004,-57.22,,
1283.019,-56.94,,
1283.034,-57.23,,
1283.049,-57.06,,
1283.064,-57.06,,
1283.079,-56.93,,
1283.094,-56.69,,
1283.109,-57.07,,
1283.124,-56.92,,
1283.139,-56.95,,
1283.154,-57.2,,
1283.169,-57.01,,
1283.184,-57.23,,
1283.199,-57.21,,
1283.214,-57.02,,
1283.229,-57.19,,
1283.244,-57.1,,
1283.259,-57.42,,
1283.274,-57.28,,
1283.289,-57.12,,
1283.304,-57.1,,
1283.319,-57.06,,
1283.334,-57.23,,
1283.349,-57.06,,
1283.364,-56.87,,
1283.379,-57.24,,
1283.394,-57.14,,
1283.409,-57.13,,
1283.424,-57.05,,
1283.439,-56.91,,
1283.454,-57.22,,
1283.469,-57.15,,
1283.484,-57.13,,
1283.499,-56.89,,
1283.514,-56.74,,
1283.529,-57.14,,
1283.544,-57.14,,
1283.559,-56.78,,
1283.574,-56.7,,
1283.589,-56.69,,
1283.604,-57.1,,
1283.619,-56.84,,
1283.634,-56.74,,
1283.649,-56.73,,
1283.664,-56.84,,
1283.679,-57.14,,
1283.694,-56.97,,
1283.709,-56.82,,
1283.724,-57.18,,
1283.739,-57.17,,
1283.754,-57.1,,
1283.769,-56.69,,
1283.784,-56.69,,
1283.799,-57.1,,
1283.814,-56.99,,
1283.829,-56.97,,
1283.844,-56.87,,
1283.859,-56.9,,
1283.874,-57.34,,
1283.889,-57.26,,
1283.904,-56.96,,
1283.919,-56.81,,
1283.934,-56.85,,
1283.949,-57.29,,
1283.964,-57.09,,
1283.979,-56.97,,
1283.994,-56.7,,
1284.009,-56.97,,
1284.024,-57.33,,
1284.039,-56.98,,
1284.054,-56.85,,
1284.069,-57.06,,
1284.084,-57.34,,
1284.099,-57.25,,
1284.114,-56.87,,
1284.129,-57.01,,
1284.144,-57.43,,
1284.159,-57.17,,
1284.174,-57.03,,
1284.189,-56.89,,
1284.204,-57.07,,
1284.219,-57.39,,
1284.234,-57.12,,
1284.249,-56.84,,
1284.264,-56.84,,
1284.279,-56.99,,
1284.294,-57.33,,
1284.309,-57.04,,
1284.324,-56.94,,
1284.339,-57.07,,
1284.354,-57.22,,
1284.369,-57.39,,
1284.384,-56.98,,
1284.399,-56.83,,
1284.414,-57.2,,
1284.429,-57.08,,
1284.444,-57.01,,
1284.459,-56.66,,
1284.474,-56.65,,
1284.489,-56.95,,
1284.504,-56.93,,
1284.519,-57.0,,
1284.534,-56.76,,
1284.549,-56.86,,
1284.564,-57.13,,
1284.579,-56.91,,
1284.594,-56.91,,
1284.609,-56.86,,
1284.624,-57.07,,
1284.639,-57.26,,
1284.654,-56.99,,
1284.669,-56.8,,
1284.684,-56.79,,
1284.699,-56.83,,
1284.714,-56.95,,
1284.729,-56.5,,
1284.744,-56.54,,
1284.759,-56.79,,
1284.774,-56.81,,
1284.789,-56.71,,
1284.804,-56.46,,
1284.819,-56.53,,
1284.834,-56.91,,
1284.849,-56.65,,
1284.864,-56.54,,
1284.879,-56.17,,
1284.894,-56.15,,
1284.909,-56.47,,
1284.924,-56.39,,
1284.939,-56.28,,
1284.954,-56.16,,
1284.969,-56.11,,
1284.984,-56.47,,
1284.999,-56.49,,
1285.014,-56.29,,
1285.029,-56.27,,
1285.044,-56.48,,
1285.059,-56.66,,
1285.074,-56.51,,
1285.089,-56.25,,
1285.104,-56.42,,
1285.119,-56.74,,
1285.134,-56.71,,
1285.149,-56.54,,
1285.164,-56.32,,
1285.179,-56.36,,
1285.194,-56.64,,
1285.209,-56.67,,
1285.224,-56.67,,
1285.24,-56.53,,
1285.255,-56.71,,
1285.269,-56.85,,
1285.284,-56.78,,
1285.299,-56.35,,
1285.314,-56.28,,
1285.329,-56.39,,
1285.344,-56.43,,
1285.359,-56.24,,
1285.375,-56.02,,
1285.39,-56.15,,
1285.404,-56.4,,
1285.419,-56.31,,
1285.434,-56.16,,
1285.449,-56.28,,
1285.464,-56.68,,
1285.479,-56.82,,
1285.495,-56.7,,
1285.51,-56.54,,
1285.525,-56.57,,
1285.54,-56.91,,
1285.554,-56.89,,
1285.569,-56.77,,
1285.584,-56.69,,
1285.599,-56.76,,
1285.615,-56.89,,
1285.63,-56.68,,
1285.645,-56.39,,
1285.66,-56.37,,
1285.675,-56.45,,
1285.689,-56.43,,
1285.704,-56.32,,
1285.719,-56.15,,
1285.734,-56.48,,
1285.75,-56.56,,
1285.765,-56.55,,
1285.78,-56.43,,
1285.795,-56.54,,
1285.81,-56.84,,
1285.825,-56.95,,
1285.839,-56.75,,
1285.854,-56.63,,
1285.87,-56.76,,
1285.885,-57.31,,
1285.9,-57.29,,
1285.915,-57.08,,
1285.93,-56.9,,
1285.945,-57.11,,
1285.96,-57.25,,
1285.974,-57.28,,
1285.99,-56.78,,
1286.005,-56.68,,
1286.02,-56.91,,
1286.035,-56.87,,
1286.05,-56.62,,
1286.065,-56.39,,
1286.08,-56.56,,
1286.095,-56.74,,
1286.11,-56.88,,
1286.125,-56.5,,
1286.14,-56.57,,
1286.155,-56.69,,
1286.17,-57.09,,
1286.185,-57.34,,
1286.2,-56.86,,
1286.215,-56.81,,
1286.23,-56.87,,
1286.245,-56.89,,
1286.26,-56.9,,
1286.275,-56.58,,
1286.29,-56.69,,
1286.305,-57.08,,
1286.32,-57.02,,
1286.335,-56.98,,
1286.35,-56.65,,
1286.365,-56.96,,
1286.38,-57.15,,
1286.395,-56.97,,
1286.41,-56.86,,
1286.425,-56.87,,
1286.44,-57.23,,
1286.455,-57.44,,
1286.47,-57.04,,
1286.485,-56.97,,
1286.5,-57.11,,
1286.515,-57.43,,
1286.53,-57.61,,
1286.545,-57.25,,
1286.56,-57.32,,
1286.575,-57.31,,
1286.59,-57.38,,
1286.605,-57.42,,
1286.62,-57.08,,
1286.635,-57.06,,
1286.65,-57.34,,
1286.665,-57.44,,
1286.68,-57.43,,
1286.695,-57.3,,
1286.71,-57.35,,
1286.725,-57.83,,
1286.74,-57.43,,
1286.755,-57.32,,
1286.77,-57.24,,
1286.785,-57.45,,
1286.8,-57.76,,
1286.815,-57.42,,
1286.83,-57.26,,
1286.845,-57.38,,
1286.86,-57.51,,
1286.875,-57.46,,
1286.89,-56.92,,
1286.905,-57.0,,
1286.92,-57.15,,
1286.935,-57.2,,
1286.95,-57.12,,
1286.965,-56.94,,
1286.98,-57.08,,
1286.995,-57.46,,
1287.01,-57.49,,
1287.025,-57.29,,
1287.04,-57.4,,
1287.055,-57.45,,
1287.07,-57.44,,
1287.085,-57.16,,
1287.1,-57.13,,
1287.115,-56.97,,
1287.13,-57.24,,
1287.145,-57.22,,
1287.16,-57.07,,
1287.175,-56.74,,
1287.19,-56.88,,
1287.205,-57.07,,
1287.22,-56.99,,
1287.235,-56.75,,
1287.25,-56.97,,
1287.265,-57.13,,
1287.28,-57.35,,
1287.295,-57.01,,
1287.31,-56.65,,
1287.325,-57.01,,
1287.34,-57.08,,
1287.355,-57.16,,
1287.37,-56.84,,
1287.385,-56.74,,
1287.4,-57.12,,
1287.415,-57.1,,
1287.43,-56.84,,
1287.445,-56.85,,
1287.46,-56.74,,
1287.475,-57.04,,
1287.49,-57.01,,
1287.505,-56.62,,
1287.52,-56.48,,
1287.535,-56.58,,
1287.55,-56.83,,
1287.565,-56.6,,
1287.58,-56.33,,
1287.595,-56.45,,
1287.61,-56.61,,
1287.625,-56.47,,
1287.64,-56.55,,
1287.655,-56.34,,
1287.67,-56.56,,
1287.685,-56.67,,
1287.7,-56.49,,
1287.715,-56.61,,
1287.73,-56.5,,
1287.745,-56.69,,
1287.76,-56.75,,
1287.775,-56.55,,
1287.79,-56.57,,
1287.805,-56.53,,
1287.82,-56.43,,
1287.835,-56.55,,
1287.85,-56.27,,
1287.865,-56.36,,
1287.88,-56.48,,
1287.895,-56.46,,
1287.91,-56.54,,
1287.925,-56.35,,
1287.94,-56.58,,
1287.955,-56.76,,
1287.97,-56.61,,
1287.985,-56.52,,
1288.0,-56.44,,
1288.015,-56.47,,
1288.03,-56.71,,
1288.045,-56.43,,
1288.06,-56.4,,
1288.075,-56.74,,
1288.09,-56.69,,
1288.105,-56.76,,
1288.12,-56.62,,
1288.135,-56.65,,
1288.15,-56.91,,
1288.165,-56.75,,
1288.18,-56.79,,
1288.195,-56.61,,
1288.21,-56.51,,
1288.225,-56.88,,
1288.24,-56.81,,
1288.255,-56.49,,
1288.27,-56.51,,
1288.285,-56.46,,
1288.3,-56.73,,
1288.315,-56.74,,
1288.33,-56.58,,
1288.345,-56.76,,
1288.36,-56.67,,
1288.375,-56.69,,
1288.39,-56.91,,
1288.405,-56.6,,
1288.42,-56.86,,
1288.435,-56.89,,
1288.45,-56.76,,
1288.465,-56.82,,
1288.48,-56.66,,
1288.495,-56.89,,
1288.51,-56.86,,
1288.525,-56.82,,
1288.54,-56.85,,
1288.555,-56.6,,
1288.57,-56.55,,
1288.585,-56.65,,
1288.6,-56.58,,
1288.615,-56.65,,
1288.63,-56.74,,
1288.645,-56.58,,
1288.66,-56.84,,
1288.675,-56.57,,
1288.69,-56.7,,
1288.705,-56.78,,
1288.72,-56.71,,
1288.735,-56.8,,
1288.75,-56.8,,
1288.765,-56.67,,
1288.78,-56.77,,
1288.795,-56.71,,
1288.81,-56.61,,
1288.825,-56.8,,
1288.84,-56.63,,
1288.855,-56.8,,
1288.87,-56.62,,
1288.885,-56.68,,
1288.9,-56.8,,
1288.915,-56.65,,
1288.93,-56.89,,
1288.945,-56.75,,
1288.96,-56.8,,
1288.975,-56.89,,
1288.99,-56.88,,
1289.005,-56.92,,
1289.02,-56.91,,
1289.035,-56.68,,
1289.05,-56.92,,
1289.065,-56.9,,
1289.08,-56.87,,
1289.095,-56.99,,
1289.11,-56.87,,
1289.125,-57.07,,
1289.14,-57.27,,
1289.155,-57.11,,
1289.17,-57.09,,
1289.185,-56.98,,
1289.2,-57.05,,
1289.215,-57.35,,
1289.23,-56.98,,
1289.245,-56.99,,
1289.26,-57.05,,
1289.275,-57.04,,
1289.29,-57.22,,
1289.305,-56.86,,
1289.32,-56.88,,
1289.335,-56.83,,
1289.35,-56.77,,
1289.365,-56.96,,
1289.38,-56.86,,
1289.395,-56.79,,
1289.41,-57.04,,
1289.425,-56.72,,
1289.44,-56.86,,
1289.455,-56.73,,
1289.47,-56.63,,
1289.485,-56.87,,
1289.5,-56.41,,
1289.515,-56.43,,
1289.53,-56.49,,
1289.545,-56.38,,
1289.56,-56.48,,
1289.575,-56.57,,
1289.59,-56.52,,
1289.605,-56.62,,
1289.62,-56.38,,
1289.635,-56.63,,
1289.65,-56.71,,
1289.665,-56.5,,
1289.68,-56.73,,
1289.695,-56.67,,
1289.71,-56.86,,
1289.725,-56.83,,
1289.74,-56.64,,
1289.755,-56.62,,
1289.77,-56.69,,
1289.785,-56.7,,
1289.8,-56.73,,
1289.815,-56.6,,
1289.83,-56.78,,
1289.845,-56.88,,
1289.86,-56.71,,
1289.875,-56.91,,
1289.89,-56.93,,
1289.905,-57.12,,
1289.92,-57.27,,
1289.935,-56.98,,
1289.95,-57.01,,
1289.965,-57.04,,
1289.98,-56.96,,
1289.995,-57.12,,
1290.01,-56.83,,
1290.025,-56.87,,
1290.04,-57.18,,
1290.055,-56.96,,
1290.07,-57.03,,
1290.085,-56.7,,
1290.1,-56.76,,
1290.115,-56.86,,
1290.13,-56.77,,
1290.145,-56.66,,
1290.16,-56.65,,
1290.175,-56.49,,
1290.19,-56.73,,
1290.205,-56.7,,
1290.22,-56.45,,
1290.235,-56.68,,
1290.25,-56.6,,
1290.265,-56.59,,
1290.28,-56.48,,
1290.295,-56.23,,
1290.31,-56.49,,
1290.325,-56.5,,
1290.34,-56.67,,
1290.355,-56.74,,
1290.37,-56.56,,
1290.385,-57.0,,
1290.4,-56.92,,
1290.415,-56.6,,
1290.43,-56.75,,
1290.445,-56.74,,
1290.46,-56.74,,
1290.475,-56.8,,
1290.49,-56.43,,
1290.505,-56.65,,
1290.52,-56.88,,
1290.535,-56.87,,
1290.55,-56.89,,
1290.565,-56.59,,
1290.58,-56.63,,
1290.595,-56.99,,
1290.61,-56.89,,
1290.625,-56.94,,
1290.64,-57.0,,
1290.655,-56.98,,
1290.67,-57.28,,
1290.685,-57.04,,
1290.7,-56.91,,
1290.715,-56.91,,
1290.73,-56.92,,
1290.745,-56.86,,
1290.76,-56.76,,
1290.775,-56.66,,
1290.79,-56.98,,
1290.805,-56.88,,
1290.82,-56.89,,
1290.835,-56.83,,
1290.85,-56.85,,
1290.865,-56.91,,
1290.88,-56.92,,
1290.895,-56.56,,
1290.91,-56.38,,
1290.925,-56.51,,
1290.94,-56.55,,
1290.955,-56.47,,
1290.97,-56.46,,
1290.985,-56.57,,
1291.0,-56.58,,
1291.015,-56.57,,
1291.03,-56.48,,
1291.045,-56.47,,
1291.06,-56.48,,
1291.075,-56.38,,
1291.09,-56.41,,
1291.105,-56.27,,
1291.12,-56.37,,
1291.135,-56.43,,
1291.15,-56.38,,
1291.165,-56.34,,
1291.18,-56.49,,
1291.195,-56.65,,
1291.21,-56.56,,
1291.225,-56.63,,
1291.24,-56.59,,
1291.255,-56.65,,
1291.27,-56.67,,
1291.285,-56.85,,
1291.3,-56.83,,
1291.315,-56.87,,
1291.33,-56.79,,
1291.345,-56.7,,
1291.36,-56.65,,
1291.375,-56.85,,
1291.39,-56.38,,
1291.405,-56.4,,
1291.42,-56.54,,
1291.435,-56.61,,
1291.45,-56.5,,
1291.465,-56.4,,
1291.48,-56.47,,
1291.495,-56.51,,
1291.51,-56.69,,
1291.525,-56.45,,
1291.54,-56.38,,
1291.555,-56.37,,
1291.57,-56.78,,
1291.585,-56.65,,
1291.6,-56.47,,
1291.615,-56.42,,
1291.63,-56.69,,
1291.645,-56.6,,
1291.66,-56.43,,
1291.675,-56.21,,
1291.69,-56.48,,
1291.705,-56.67,,
1291.72,-56.39,,
1291.735,-56.23,,
1291.75,-56.4,,
1291.765,-56.65,,
1291.78,-56.71,,
1291.795,-56.25,,
1291.81,-56.13,,
1291.825,-56.49,,
1291.84,-56.54,,
1291.855,-56.26,,
1291.87,-56.2,,
1291.885,-56.31,,
1291.9,-56.63,,
1291.915,-56.8,,
1291.93,-56.41,,
1291.945,-56.3,,
1291.96,-56.59,,
1291.975,-56.51,,
1291.99,-56.3,,
1292.005,-56.17,,
1292.02,-56.18,,
1292.035,-56.48,,
1292.05,-56.19,,
1292.065,-56.11,,
1292.08,-56.27,,
1292.095,-56.56,,
1292.11,-56.52,,
1292.125,-56.3,,
1292.14,-56.27,,
1292.155,-56.59,,
1292.17,-56.63,,
1292.185,-56.39,,
1292.2,-56.15,,
1292.215,-56.45,,
1292.23,-56.56,,
1292.245,-56.58,,
1292.26,-56.32,,
1292.275,-56.38,,
1292.29,-56.56,,
1292.305,-56.69,,
1292.32,-56.33,,
1292.335,-56.23,,
1292.35,-56.29,,
1292.365,-56.57,,
1292.38,-56.26,,
1292.395,-56.22,,
1292.41,-56.42,,
1292.425,-56.66,,
1292.44,-56.71,,
1292.455,-56.48,,
1292.47,-56.6,,
1292.485,-56.81,,
1292.5,-56.97,,
1292.515,-56.63,,
1292.53,-56.66,,
1292.545,-56.73,,
1292.56,-57.13,,
1292.575,-56.81,,
1292.59,-56.79,,
1292.605,-56.79,,
1292.62,-57.14,,
1292.635,-57.0,,
1292.65,-56.75,,
1292.665,-56.58,,
1292.68,-56.77,,
1292.695,-56.91,,
1292.71,-56.66,,
1292.725,-56.59,,
1292.74,-56.63,,
1292.755,-56.94,,
1292.77,-56.78,,
1292.785,-56.55,,
1292.8,-56.68,,
1292.815,-57.27,,
1292.83,-57.02,,
1292.845,-56.85,,
1292.86,-56.7,,
1292.875,-57.03,,
1292.89,-57.18,,
1292.905,-56.9,,
1292.92,-56.56,,
1292.935,-56.85,,
1292.95,-57.08,,
1292.965,-57.05,,
1292.98,-56.72,,
1292.995,-56.8,,
1293.01,-57.02,,
1293.025,-57.15,,
1293.04,-56.81,,
1293.055,-56.73,,
1293.07,-56.88,,
1293.085,-57.1,,
1293.1,-56.72,,
1293.115,-56.68,,
1293.13,-56.79,,
1293.145,-57.16,,
1293.16,-57.19,,
1293.175,-56.93,,
1293.19,-56.84,,
1293.205,-57.13,,
1293.22,-57.02,,
1293.235,-56.73,,
1293.25,-56.56,,
1293.266,-56.5,,
1293.281,-56.74,,
1293.295,-56.54,,
1293.31,-56.27,,
1293.325,-56.48,,
1293.34,-56.81,,
1293.355,-56.87,,
1293.37,-56.57,,
1293.385,-56.4,,
1293.401,-56.78,,
1293.416,-56.79,,
1293.43,-56.48,,
1293.445,-56.29,,
1293.46,-56.55,,
1293.475,-56.79,,
1293.49,-56.69,,
1293.505,-56.51,,
1293.521,-56.7,,
1293.536,-56.83,,
1293.551,-56.87,,
1293.566,-56.48,,
1293.58,-56.37,,
1293.595,-56.49,,
1293.61,-56.71,,
1293.625,-56.31,,
1293.641,-56.3,,
1293.656,-56.37,,
1293.671,-56.66,,
1293.686,-56.84,,
1293.701,-56.44,,
1293.715,-56.35,,
1293.73,-56.54,,
1293.745,-56.7,,
1293.76,-56.37,,
1293.776,-56.24,,
1293.791,-56.3,,
1293.806,-56.62,,
1293.821,-56.18,,
1293.836,-56.15,,
1293.851,-56.11,,
1293.865,-56.47,,
1293.88,-56.35,,
1293.896,-56.03,,
1293.911,-56.0,,
1293.926,-56.35,,
1293.941,-56.3,,
1293.956,-56.12,,
1293.971,-55.91,,
1293.986,-56.22,,
1294.001,-56.27,,
1294.016,-56.26,,
1294.031,-56.08,,
1294.046,-56.07,,
1294.061,-56.34,,
1294.076,-56.51,,
1294.091,-56.46,,
1294.106,-56.36,,
1294.121,-56.49,,
1294.136,-56.71,,
1294.151,-56.49,,
1294.166,-56.13,,
1294.181,-56.2,,
1294.196,-56.35,,
1294.211,-56.44,,
1294.226,-56.21,,
1294.241,-56.29,,
1294.256,-56.28,,
1294.271,-56.56,,
1294.286,-56.3,,
1294.301,-56.19,,
1294.316,-56.3,,
1294.331,-56.46,,
1294.346,-56.23,,
1294.361,-56.12,,
1294.376,-56.23,,
1294.391,-56.61,,
1294.406,-56.6,,
1294.421,-56.49,,
1294.436,-56.57,,
1294.451,-56.69,,
1294.466,-56.68,,
1294.481,-56.4,,
1294.496,-56.24,,
1294.511,-56.24,,
1294.526,-56.4,,
1294.541,-56.27,,
1294.556,-56.1,,
1294.571,-56.17,,
1294.586,-56.52,,
1294.601,-56.52,,
1294.616,-56.29,,
1294.631,-56.31,,
1294.646,-56.43,,
1294.661,-56.54,,
1294.676,-56.44,,
1294.691,-56.16,,
1294.706,-56.38,,
1294.721,-56.54,,
1294.736,-56.63,,
1294.751,-56.36,,
1294.766,-56.51,,
1294.781,-56.67,,
1294.796,-56.72,,
1294.811,-56.36,,
1294.826,-56.34,,
1294.841,-56.49,,
1294.856,-56.7,,
1294.871,-56.38,,
1294.886,-56.37,,
1294.901,-56.47,,
1294.916,-56.81,,
1294.931,-56.83,,
1294.946,-56.47,,
1294.961,-56.49,,
1294.976,-56.94,,
1294.991,-56.86,,
1295.006,-56.79,,
1295.021,-56.56,,
1295.036,-56.65,,
1295.051,-57.09,,
1295.066,-57.06,,
1295.081,-56.76,,
1295.096,-56.55,,
1295.111,-56.9,,
1295.126,-56.98,,
1295.141,-56.96,,
1295.156,-56.8,,
1295.171,-56.87,,
1295.186,-56.97,,
1295.201,-57.03,,
1295.216,-56.66,,
1295.231,-56.66,,
1295.246,-56.71,,
1295.261,-56.94,,
1295.276,-56.74,,
1295.291,-56.71,,
1295.306,-56.78,,
1295.321,-57.27,,
1295.336,-57.36,,
1295.351,-57.17,,
1295.366,-57.25,,
1295.381,-57.5,,
1295.396,-57.43,,
1295.411,-57.06,,
1295.426,-56.91,,
1295.441,-56.86,,
1295.456,-57.17,,
1295.471,-56.94,,
1295.486,-56.81,,
1295.501,-56.87,,
1295.516,-57.3,,
1295.531,-57.03,,
1295.546,-56.75,,
1295.561,-56.81,,
1295.576,-57.08,,
1295.591,-57.0,,
1295.606,-56.87,,
1295.621,-56.75,,
1295.636,-57.03,,
1295.651,-57.2,,
1295.666,-57.2,,
1295.681,-56.91,,
1295.696,-56.94,,
1295.711,-57.1,,
1295.726,-57.25,,
1295.741,-56.82,,
1295.756,-56.98,,
1295.771,-57.42,,
1295.786,-57.37,,
1295.801,-57.19,,
1295.816,-57.19,,
1295.831,-57.47,,
1295.846,-57.64,,
1295.861,-57.22,,
1295.876,-57.17,,
1295.891,-57.56,,
1295.906,-57.68,,
1295.921,-57.59,,
1295.936,-57.06,,
1295.951,-57.16,,
1295.966,-57.59,,
1295.981,-57.23,,
1295.996,-56.99,,
1296.011,-56.97,,
1296.026,-57.12,,
1296.041,-57.43,,
1296.056,-57.0,,
1296.071,-56.81,,
1296.086,-57.01,,
1296.101,-57.28,,
1296.116,-56.89,,
1296.131,-56.84,,
1296.146,-56.52,,
1296.161,-56.67,,
1296.176,-56.96,,
1296.191,-56.61,,
1296.206,-56.44,,
1296.221,-56.71,,
1296.236,-56.73,,
1296.251,-57.07,,
1296.266,-56.67,,
1296.281,-56.67,,
1296.296,-56.96,,
1296.311,-56.96,,
1296.326,-56.68,,
1296.341,-56.45,,
1296.356,-56.59,,
1296.371,-56.92,,
1296.386,-56.59,,
1296.401,-56.27,,
1296.416,-56.52,,
1296.431,-56.55,,
1296.446,-56.58,,
1296.461,-56.34,,
1296.476,-56.26,,
1296.491,-56.62,,
1296.506,-56.67,,
1296.521,-56.33,,
1296.536,-56.38,,
1296.551,-56.72,,
1296.566,-56.69,,
1296.581,-56.54,,
1296.596,-56.21,,
1296.611,-56.39,,
1296.626,-56.58,,
1296.641,-56.38,,
1296.656,-56.29,,
1296.671,-56.26,,
1296.686,-56.23,,
1296.701,-56.31,,
1296.716,-56.04,,
1296.731,-55.88,,
1296.746,-56.14,,
1296.761,-56.13,,
1296.776,-55.83,,
1296.791,-55.7,,
1296.806,-55.92,,
1296.821,-55.92,,
1296.836,-55.82,,
1296.851,-55.62,,
1296.866,-55.86,,
1296.881,-56.01,,
1296.896,-55.71,,
1296.911,-55.59,,
1296.926,-55.74,,
1296.941,-56.03,,
1296.956,-56.07,,
1296.971,-55.77,,
1296.986,-55.86,,
1297.001,-56.09,,
1297.016,-56.12,,
1297.031,-55.99,,
1297.046,-55.9,,
1297.061,-55.95,,
1297.076,-56.12,,
1297.091,-56.03,,
1297.106,-55.78,,
1297.121,-55.99,,
1297.136,-56.03,,
1297.151,-56.06,,
1297.166,-56.09,,
1297.181,-56.01,,
1297.196,-56.29,,
1297.211,-56.35,,
1297.226,-56.13,,
1297.241,-56.2,,
1297.256,-56.16,,
1297.271,-56.19,,
1297.286,-56.17,,
1297.301,-55.93,,
1297.316,-56.13,,
1297.331,-56.31,,
1297.346,-56.16,,
1297.361,-56.08,,
1297.376,-56.05,,
1297.391,-55.99,,
1297.406,-56.17,,
1297.421,-55.93,,
1297.436,-55.92,,
1297.451,-56.17,,
1297.466,-56.05,,
1297.481,-56.03,,
1297.496,-56.06,,
1297.511,-55.96,,
1297.526,-56.19,,
1297.541,-56.1,,
1297.556,-55.92,,
1297.571,-56.28,,
1297.586,-56.32,,
1297.601,-56.35,,
1297.616,-56.39,,
1297.631,-56.49,,
1297.646,-56.7,,
1297.661,-56.79,,
1297.676,-56.4,,
1297.691,-56.5,,
1297.706,-56.8,,
1297.721,-56.83,,
1297.736,-56.85,,
1297.751,-56.56,,
1297.766,-56.69,,
1297.781,-56.97,,
1297.796,-56.75,,
1297.811,-56.49,,
1297.826,-56.77,,
1297.841,-56.89,,
1297.856,-56.9,,
1297.871,-56.61,,
1297.886,-56.6,,
1297.901,-56.87,,
1297.916,-56.98,,
1297.931,-56.58,,
1297.946,-56.46,,
1297.961,-56.54,,
1297.976,-56.49,,
1297.991,-56.41,,
1298.006,-56.17,,
1298.021,-56.34,,
1298.036,-56.66,,
1298.051,-56.35,,
1298.066,-56.41,,
1298.081,-56.46,,
1298.096,-56.55,,
1298.111,-56.75,,
1298.126,-56.44,,
1298.141,-56.41,,
1298.156,-56.74,,
1298.171,-56.55,,
1298.186,-56.51,,
1298.201,-56.52,,
1298.216,-56.51,,
1298.231,-56.82,,
1298.246,-56.7,,
1298.261,-56.44,,
1298.276,-56.66,,
1298.291,-56.81,,
1298.306,-56.77,,
1298.321,-56.74,,
1298.336,-56.56,,
1298.351,-56.87,,
1298.366,-56.87,,
1298.381,-56.48,,
1298.396,-56.66,,
1298.411,-56.83,,
1298.426,-56.91,,
1298.441,-56.88,,
1298.456,-56.53,,
1298.471,-56.81,,
1298.486,-57.08,,
1298.501,-56.7,,
1298.516,-56.7,,
1298.531,-56.81,,
1298.546,-56.85,,
1298.561,-56.99,,
1298.576,-56.57,,
1298.591,-56.52,,
1298.606,-56.95,,
1298.621,-56.87,,
1298.636,-56.52,,
1298.651,-56.34,,
1298.666,-56.47,,
1298.681,-56.87,,
1298.696,-56.69,,
1298.711,-56.35,,
1298.726,-56.49,,
1298.741,-56.73,,
1298.756,-56.69,,
1298.771,-56.53,,
1298.786,-56.56,,
1298.801,-56.88,,
1298.816,-57.14,,
1298.831,-56.79,,
1298.846,-56.73,,
1298.861,-57.08,,
1298.876,-57.12,,
1298.891,-56.91,,
1298.906,-56.94,,
1298.921,-56.82,,
1298.936,-57.2,,
1298.951,-57.13,,
1298.966,-56.77,,
1298.981,-56.99,,
1298.996,-57.38,,
1299.011,-57.35,,
1299.026,-57.17,,
1299.041,-56.81,,
1299.056,-57.15,,
1299.071,-57.36,,
1299.086,-57.05,,
1299.101,-56.91,,
1299.116,-57.03,,
1299.131,-57.04,,
1299.146,-57.1,,
1299.161,-56.66,,
1299.176,-56.9,,
1299.191,-57.28,,
1299.206,-56.94,,
1299.221,-56.93,,
1299.236,-56.8,,
1299.251,-56.91,,
1299.266,-57.17,,
1299.281,-56.94,,
1299.296,-56.7,,
1299.311,-57.1,,
1299.326,-57.07,,
1299.341,-56.94,,
1299.356,-56.79,,
1299.371,-56.67,,
1299.386,-57.04,,
1299.401,-56.97,,
1299.416,-56.59,,
1299.431,-56.66,,
1299.446,-56.99,,
1299.461,-57.07,,
1299.476,-56.86,,
1299.491,-56.6,,
1299.506,-56.83,,
1299.521,-57.15,,
1299.536,-56.73,,
1299.551,-56.7,,
1299.566,-56.72,,
1299.581,-56.89,,
1299.596,-56.8,,
1299.611,-56.55,,
1299.626,-56.45,,
1299.641,-56.82,,
1299.656,-56.92,,
1299.671,-56.61,,
1299.686,-56.34,,
1299.701,-56.57,,
1299.716,-56.65,,
1299.731,-56.58,,
1299.746,-56.31,,
1299.761,-56.61,,
1299.776,-56.87,,
1299.791,-56.56,,
1299.806,-56.35,,
1299.821,-56.43,,
1299.836,-56.58,,
1299.851,-56.44,,
1299.866,-56.26,,
1299.881,-56.24,,
1299.896,-56.67,,
1299.911,-56.37,,
1299.926,-56.39,,
1299.941,-56.32,,
1299.956,-56.45,,
1299.971,-56.45,,
1299.986,-56.41,,
1300.001,-56.38,,
1300.016,-56.5,,
1300.031,-56.71,,
1300.046,-56.69,,
1300.061,-56.46,,
1300.076,-56.51,,
1300.091,-56.7,,
1300.106,-56.55,,
1300.121,-56.27,,
1300.136,-56.51,,
1300.151,-56.6,,
1300.166,-56.91,,
1300.181,-56.66,,
1300.196,-56.4,,
1300.211,-56.57,,
1300.226,-56.61,,
1300.241,-56.44,,
1300.256,-56.49,,
1300.271,-56.36,,
1300.286,-56.58,,
1300.301,-56.57,,
1300.316,-56.34,,
1300.331,-56.36,,
1300.346,-56.66,,
1300.361,-56.43,,
1300.376,-56.59,,
1300.391,-56.67,,
1300.406,-56.89,,
1300.421,-57.03,,
1300.436,-56.88,,
1300.451,-56.59,,
1300.466,-56.81,,
1300.481,-56.8,,
1300.496,-56.81,,
1300.511,-56.97,,
1300.526,-56.76,,
1300.541,-56.93,,
1300.556,-56.91,,
1300.571,-56.78,,
1300.586,-56.88,,
1300.601,-56.96,,
1300.616,-56.86,,
1300.631,-57.0,,
1300.646,-56.7,,
1300.661,-56.86,,
1300.676,-57.0,,
1300.691,-56.92,,
1300.706,-56.79,,
1300.721,-57.06,,
1300.736,-56.94,,
1300.751,-57.06,,
1300.766,-56.83,,
1300.781,-56.86,,
1300.796,-56.97,,
1300.811,-56.93,,
1300.826,-56.67,,
1300.841,-56.83,,
1300.856,-56.92,,
1300.871,-56.76,,
1300.886,-56.69,,
1300.901,-56.55,,
1300.916,-56.82,,
1300.931,-56.81,,
1300.946,-56.69,,
1300.961,-56.65,,
1300.976,-56.79,,
1300.991,-56.72,,
1301.006,-56.53,,
1301.021,-56.43,,
1301.036,-56.43,,
1301.051,-56.52,,
1301.066,-56.56,,
1301.081,-56.43,,
1301.096,-56.43,,
1301.111,-56.75,,
1301.126,-56.87,,
1301.141,-56.6,,
1301.156,-56.54,,
1301.171,-56.54,,
1301.186,-56.59,,
1301.201,-56.51,,
1301.216,-56.53,,
1301.231,-56.51,,
1301.246,-56.75,,
1301.261,-56.57,,
1301.276,-56.56,,
1301.292,-56.53,,
1301.307,-56.55,,
1301.321,-56.57,,
1301.336,-56.55,,
1301.351,-56.29,,
1301.366,-56.69,,
1301.381,-56.6,,
1301.396,-56.37,,
1301.411,-56.22,,
1301.427,-56.3,,
1301.442,-56.28,,
1301.457,-56.35,,
1301.471,-56.14,,
1301.486,-56.25,,
1301.501,-56.52,,
1301.516,-56.18,,
1301.531,-56.2,,
1301.547,-56.34,,
1301.562,-56.32,,
1301.577,-56.34,,
1301.592,-56.03,,
1301.606,-56.03,,
1301.621,-56.33,,
1301.636,-56.24,,
1301.651,-56.28,,
1301.667,-56.17,,
1301.682,-56.26,,
1301.697,-56.27,,
1301.712,-56.19,,
1301.727,-55.97,,
1301.742,-56.27,,
1301.756,-56.29,,
1301.771,-56.23,,
1301.786,-56.07,,
1301.802,-56.11,,
1301.817,-56.2,,
1301.832,-56.2,,
1301.847,-55.85,,
1301.862,-55.83,,
1301.877,-56.08,,
1301.891,-56.17,,
1301.906,-56.07,,
1301.922,-56.04,,
1301.937,-56.11,,
1301.952,-56.12,,
1301.967,-56.0,,
1301.982,-55.82,,
1301.997,-56.14,,
1302.012,-56.17,,
1302.027,-56.16,,
1302.042,-56.02,,
1302.057,-56.1,,
1302.072,-56.15,,
1302.087,-56.12,,
1302.102,-56.11,,
1302.117,-55.96,,
1302.132,-56.01,,
1302.147,-56.05,,
1302.162,-56.05,,
1302.177,-55.99,,
1302.192,-56.03,,
1302.207,-56.03,,
1302.222,-56.02,,
1302.237,-55.93,,
1302.252,-56.01,,
1302.267,-56.04,,
1302.282,-56.07,,
1302.297,-56.01,,
1302.312,-56.12,,
1302.327,-56.16,,
1302.342,-56.07,,
1302.357,-56.34,,
1302.372,-56.19,,
1302.387,-56.31,,
1302.402,-56.19,,
1302.417,-56.21,,
1302.432,-56.18,,
1302.447,-56.25,,
1302.462,-56.14,,
1302.477,-56.28,,
1302.492,-56.25,,
1302.507,-56.26,,
1302.522,-56.33,,
1302.537,-56.36,,
1302.552,-56.24,,
1302.567,-56.28,,
1302.582,-56.32,,
1302.597,-56.51,,
1302.612,-56.75,,
1302.627,-56.44,,
1302.642,-56.4,,
1302.657,-56.37,,
1302.672,-56.47,,
1302.687,-56.45,,
1302.702,-56.33,,
1302.717,-56.33,,
1302.732,-56.66,,
1302.747,-56.4,,
1302.762,-56.41,,
1302.777,-56.37,,
1302.792,-56.49,,
1302.807,-56.52,,
1302.822,-56.49,,
1302.837,-56.45,,
1302.852,-56.68,,
1302.867,-57.0,,
1302.882,-56.69,,
1302.897,-56.67,,
1302.912,-56.74,,
1302.927,-56.62,,
1302.942,-56.7,,
1302.957,-56.76,,
1302.972,-56.65,,
1302.987,-56.98,,
1303.002,-56.82,,
1303.017,-56.57,,
1303.032,-56.59,,
1303.047,-56.64,,
1303.062,-56.63,,
1303.077,-56.52,,
1303.092,-56.53,,
1303.107,-56.5,,
1303.122,-56.65,,
1303.137,-56.36,,
1303.152,-56.4,,
1303.167,-56.31,,
1303.182,-56.34,,
1303.197,-56.42,,
1303.212,-56.52,,
1303.227,-56.39,,
1303.242,-56.65,,
1303.257,-56.53,,
1303.272,-56.41,,
1303.287,-56.38,,
1303.302,-56.29,,
1303.317,-56.26,,
1303.332,-56.25,,
1303.347,-56.21,,
1303.362,-56.11,,
1303.377,-56.22,,
1303.392,-55.99,,
1303.407,-56.08,,
1303.422,-56.01,,
1303.437,-55.93,,
1303.452,-56.02,,
1303.467,-56.05,,
1303.482,-56.01,,
1303.497,-56.11,,
1303.512,-55.94,,
1303.527,-55.9,,
1303.542,-56.03,,
1303.557,-55.92,,
1303.572,-56.1,,
1303.587,-56.06,,
1303.602,-55.91,,
1303.617,-55.83,,
1303.632,-55.96,,
1303.647,-55.88,,
1303.662,-55.92,,
1303.677,-56.06,,
1303.692,-55.83,,
1303.707,-56.03,,
1303.722,-56.04,,
1303.737,-55.89,,
1303.752,-56.09,,
1303.767,-55.88,,
1303.782,-55.94,,
1303.797,-56.07,,
1303.812,-56.13,,
1303.827,-56.02,,
1303.842,-56.07,,
1303.857,-55.98,,
1303.872,-55.99,,
1303.887,-56.02,,
1303.902,-55.92,,
1303.917,-56.05,,
1303.932,-56.3,,
1303.947,-56.02,,
1303.962,-55.9,,
1303.977,-56.15,,
1303.992,-56.17,,
1304.007,-56.25,,
1304.022,-56.22,,
1304.037,-56.27,,
1304.052,-56.52,,
1304.067,-56.34,,
1304.082,-56.18,,
1304.097,-56.4,,
1304.112,-56.62,,
1304.127,-56.38,,
1304.142,-56.37,,
1304.157,-56.27,,
1304.172,-56.51,,
1304.187,-56.63,,
1304.202,-56.31,,
1304.217,-56.28,,
1304.232,-56.29,,
1304.247,-56.46,,
1304.262,-56.17,,
1304.277,-56.15,,
1304.292,-56.43,,
1304.307,-56.65,,
1304.322,-56.53,,
1304.337,-56.34,,
1304.352,-56.49,,
1304.367,-56.77,,
1304.382,-56.54,,
1304.397,-56.44,,
1304.412,-56.54,,
1304.427,-56.92,,
1304.442,-56.81,,
1304.457,-56.57,,
1304.472,-56.59,,
1304.487,-56.93,,
1304.502,-56.89,,
1304.517,-56.59,,
1304.532,-56.68,,
1304.547,-56.89,,
1304.562,-56.78,,
1304.577,-56.44,,
1304.592,-56.5,,
1304.607,-56.78,,
1304.622,-56.92,,
1304.637,-56.69,,
1304.652,-56.58,,
1304.667,-56.84,,
1304.682,-56.81,,
1304.697,-56.74,,
1304.712,-56.6,,
1304.727,-56.97,,
1304.742,-57.07,,
1304.757,-56.91,,
1304.772,-56.83,,
1304.787,-56.92,,
1304.802,-57.17,,
1304.817,-56.85,,
1304.832,-56.77,,
1304.847,-56.91,,
1304.862,-57.39,,
1304.877,-57.02,,
1304.892,-56.85,,
1304.907,-57.01,,
1304.922,-56.99,,
1304.937,-56.95,,
1304.952,-56.77,,
1304.967,-56.89,,
1304.982,-57.07,,
1304.997,-56.96,,
1305.012,-56.57,,
1305.027,-56.76,,
1305.042,-57.15,,
1305.057,-56.85,,
1305.072,-56.78,,
1305.087,-56.81,,
1305.102,-56.97,,
1305.117,-56.95,,
1305.132,-56.8,,
1305.147,-56.78,,
1305.162,-57.15,,
1305.177,-57.26,,
1305.192,-56.79,,
1305.207,-56.85,,
1305.222,-56.77,,
1305.237,-57.2,,
1305.252,-56.85,,
1305.267,-56.82,,
1305.282,-56.98,,
1305.297,-57.06,,
1305.312,-56.8,,
1305.327,-56.55,,
1305.342,-56.86,,
1305.357,-57.09,,
1305.372,-57.05,,
1305.387,-56.76,,
1305.402,-56.78,,
1305.417,-57.05,,
1305.432,-56.94,,
1305.447,-56.76,,
1305.462,-56.72,,
1305.477,-57.02,,
1305.492,-56.83,,
1305.507,-56.44,,
1305.522,-56.51,,
1305.537,-56.7,,
1305.552,-56.58,,
1305.567,-56.64,,
1305.582,-56.59,,
1305.597,-56.58,,
1305.612,-56.84,,
1305.627,-56.46,,
1305.642,-56.45,,
1305.657,-56.49,,
1305.672,-56.6,,
1305.687,-56.65,,
1305.702,-56.58,,
1305.717,-56.44,,
1305.732,-56.46,,
1305.747,-56.43,,
1305.762,-56.21,,
1305.777,-56.19,,
1305.792,-56.13,,
1305.807,-56.04,,
1305.822,-56.1,,
1305.837,-56.0,,
1305.852,-56.0,,
1305.867,-55.98,,
1305.882,-56.11,,
1305.897,-56.09,,
1305.912,-56.0,,
1305.927,-56.06,,
1305.942,-56.02,,
1305.957,-56.14,,
1305.972,-56.11,,
1305.987,-56.01,,
1306.002,-56.14,,
1306.017,-56.17,,
1306.032,-56.08,,
1306.047,-55.72,,
1306.062,-55.81,,
1306.077,-55.96,,
1306.092,-55.97,,
1306.107,-55.93,,
1306.122,-55.95,,
1306.137,-55.92,,
1306.152,-55.89,,
1306.167,-55.68,,
1306.182,-55.59,,
1306.197,-55.96,,
1306.212,-55.87,,
1306.227,-55.92,,
1306.242,-55.79,,
1306.257,-55.93,,
1306.272,-55.97,,
1306.287,-55.92,,
1306.302,-55.63,,
1306.317,-55.7,,
1306.332,-56.05,,
1306.347,-55.93,,
1306.362,-55.78,,
1306.377,-55.74,,
1306.392,-55.86,,
1306.407,-55.86,,
1306.422,-55.8,,
1306.437,-55.65,,
1306.452,-55.87,,
1306.467,-55.97,,
1306.482,-55.77,,
1306.497,-55.73,,
1306.512,-56.03,,
1306.527,-56.05,,
1306.542,-55.99,,
1306.557,-56.01,,
1306.572,-56.03,,
1306.587,-56.37,,
1306.602,-56.24,,
1306.617,-55.9,,
1306.632,-56.1,,
1306.647,-56.21,,
1306.662,-56.22,,
1306.677,-56.24,,
1306.692,-56.21,,
1306.707,-56.11,,
1306.722,-56.39,,
1306.737,-56.15,,
1306.752,-56.1,,
1306.767,-56.39,,
1306.782,-56.29,,
1306.797,-56.42,,
1306.812,-56.53,,
1306.827,-56.47,,
1306.842,-56.47,,
1306.857,-56.55,,
1306.872,-56.29,,
1306.887,-56.36,,
1306.902,-56.38,,
1306.917,-56.29,,
1306.932,-56.44,,
1306.947,-56.45,,
1306.962,-56.24,,
1306.977,-56.36,,
1306.992,-56.55,,
1307.007,-56.39,,
1307.022,-56.53,,
1307.037,-56.39,,
1307.052,-56.53,,
1307.067,-56.82,,
1307.082,-56.6,,
1307.097,-56.5,,
1307.112,-56.61,,
1307.127,-56.65,,
1307.142,-56.52,,
1307.157,-56.53,,
1307.172,-56.54,,
1307.187,-56.72,,
1307.202,-56.55,,
1307.217,-56.43,,
1307.232,-56.54,,
1307.247,-56.78,,
1307.262,-56.64,,
1307.277,-56.47,,
1307.292,-56.61,,
1307.307,-57.02,,
1307.322,-57.24,,
1307.337,-56.91,,
1307.352,-56.7,,
1307.367,-56.92,,
1307.382,-56.91,,
1307.397,-56.57,,
1307.412,-56.63,,
1307.427,-56.81,,
1307.442,-56.97,,
1307.457,-56.68,,
1307.472,-56.48,,
1307.487,-56.6,,
1307.502,-56.87,,
1307.517,-56.58,,
1307.532,-56.48,,
1307.547,-56.71,,
1307.562,-56.8,,
1307.577,-56.69,,
1307.592,-56.32,,
1307.607,-56.56,,
1307.622,-56.86,,
1307.637,-56.57,,
1307.652,-56.29,,
1307.667,-56.32,,
1307.682,-56.67,,
1307.697,-56.31,,
1307.712,-56.21,,
1307.727,-56.16,,
1307.742,-56.45,,
1307.757,-56.46,,
1307.772,-56.04,,
1307.787,-55.98,,
1307.802,-56.34,,
1307.817,-56.17,,
1307.832,-56.13,,
1307.847,-56.08,,
1307.862,-56.01,,
1307.877,-56.3,,
1307.892,-56.15,,
1307.907,-56.01,,
1307.922,-56.26,,
1307.937,-56.52,,
1307.952,-56.19,,
1307.967,-56.12,,
1307.982,-56.37,,
1307.997,-56.4,,
1308.012,-56.46,,
1308.027,-56.03,,
1308.042,-56.1,,
1308.057,-56.39,,
1308.072,-56.21,,
1308.087,-56.02,,
1308.102,-56.22,,
1308.117,-56.52,,
1308.132,-56.14,,
1308.147,-56.13,,
1308.162,-56.32,,
1308.177,-56.5,,
1308.192,-56.63,,
1308.207,-56.36,,
1308.222,-56.47,,
1308.237,-56.7,,
1308.252,-56.57,,
1308.267,-56.32,,
1308.282,-56.49,,
1308.297,-56.72,,
1308.312,-56.4,,
1308.327,-56.08,,
1308.342,-56.2,,
1308.357,-56.36,,
1308.372,-56.56,,
1308.387,-56.21,,
1308.402,-56.27,,
1308.417,-56.64,,
1308.432,-56.49,,
1308.447,-56.26,,
1308.462,-56.24,,
1308.477,-56.62,,
1308.492,-56.65,,
1308.507,-56.39,,
1308.522,-56.37,,
1308.537,-56.52,,
1308.552,-56.77,,
1308.567,-56.44,,
1308.582,-56.28,,
1308.597,-56.73,,
1308.612,-56.78,,
1308.627,-56.43,,
1308.642,-56.42,,
1308.657,-56.75,,
1308.672,-56.9,,
1308.687,-56.77,,
1308.702,-56.51,,
1308.717,-56.68,,
1308.732,-56.95,,
1308.747,-56.8,,
1308.762,-56.59,,
1308.777,-56.83,,
1308.792,-57.28,,
1308.807,-56.83,,
1308.822,-56.83,,
1308.837,-56.58,,
1308.852,-56.83,,
1308.867,-57.04,,
1308.882,-56.71,,
1308.897,-56.59,,
1308.912,-56.87,,
1308.927,-56.77,,
1308.942,-56.34,,
1308.957,-56.44,,
1308.972,-56.86,,
1308.987,-56.93,,
1309.002,-56.67,,
1309.017,-56.37,,
1309.032,-56.65,,
1309.047,-56.94,,
1309.062,-56.57,,
1309.077,-56.5,,
1309.092,-56.82,,
1309.107,-56.8,,
1309.122,-56.37,,
1309.137,-56.41,,
1309.152,-56.5,,
1309.167,-56.58,,
1309.182,-56.46,,
1309.198,-56.17,,
1309.212,-56.37,,
1309.227,-56.53,,
1309.242,-56.25,,
1309.257,-56.11,,
1309.272,-56.39,,
1309.287,-56.54,,
1309.302,-56.41,,
1309.318,-56.37,,
1309.333,-56.47,,
1309.347,-56.59,,
1309.362,-56.7,,
1309.377,-56.26,,
1309.392,-56.34,,
1309.407,-56.64,,
1309.422,-56.41,,
1309.438,-56.47,,
1309.453,-56.39,,
1309.468,-56.61,,
1309.483,-56.59,,
1309.497,-56.54,,
1309.512,-56.43,,
1309.527,-56.61,,
1309.542,-56.74,,
1309.557,-56.32,,
1309.573,-56.35,,
1309.588,-56.85,,
1309.603,-56.78,,
1309.618,-56.51,,
1309.632,-56.4,,
1309.647,-56.8,,
1309.662,-56.88,,
1309.677,-56.72,,
1309.693,-56.42,,
1309.708,-56.79,,
1309.723,-57.01,,
1309.738,-56.68,,
1309.753,-56.61,,
1309.768,-57.05,,
1309.782,-57.28,,
1309.797,-56.99,,
1309.813,-56.94,,
1309.828,-57.17,,
1309.843,-57.48,,
1309.858,-57.18,,
1309.873,-56.92,,
1309.888,-57.33,,
1309.903,-57.41,,
1309.917,-57.14,,
1309.932,-57.1,,
1309.948,-57.57,,
1309.963,-57.75,,
1309.978,-57.55,,
1309.993,-57.12,,
1310.008,-57.24,,
1310.023,-57.76,,
1310.038,-57.49,,
1310.053,-57.19,,
1310.068,-57.58,,
1310.083,-57.83,,
1310.098,-57.41,,
1310.113,-57.32,,
1310.128,-57.51,,
1310.143,-57.82,,
1310.158,-57.9,,
1310.173,-57.41,,
1310.188,-57.63,,
1310.203,-57.98,,
1310.218,-57.81,,
1310.233,-57.49,,
1310.248,-57.89,,
1310.263,-58.13,,
1310.278,-57.85,,
1310.293,-57.74,,
1310.308,-57.44,,
1310.323,-57.66,,
1310.338,-57.84,,
1310.353,-57.49,,
1310.368,-57.17,,
1310.383,-57.6,,
1310.398,-57.76,,
1310.413,-57.48,,
1310.428,-57.54,,
1310.443,-57.66,,
1310.458,-57.62,,
1310.473,-57.51,,
1310.488,-57.25,,
1310.503,-57.32,,
1310.518,-57.77,,
1310.533,-57.44,,
1310.548,-57.16,,
1310.563,-57.71,,
1310.578,-57.79,,
1310.593,-57.25,,
1310.608,-57.06,,
1310.623,-57.21,,
1310.638,-57.26,,
1310.653,-57.05,,
1310.668,-56.67,,
1310.683,-56.86,,
1310.698,-57.38,,
1310.713,-57.02,,
1310.728,-56.74,,
1310.743,-57.04,,
1310.758,-57.32,,
1310.773,-56.89,,
1310.788,-56.58,,
1310.803,-56.78,,
1310.818,-56.89,,
1310.833,-56.59,,
1310.848,-56.27,,
1310.863,-56.42,,
1310.878,-56.82,,
1310.893,-56.5,,
1310.908,-56.36,,
1310.923,-56.58,,
1310.938,-56.79,,
1310.953,-56.52,,
1310.968,-56.31,,
1310.983,-56.46,,
1310.998,-56.55,,
1311.013,-56.42,,
1311.028,-56.02,,
1311.043,-56.14,,
1311.058,-56.54,,
1311.073,-56.27,,
1311.088,-55.99,,
1311.103,-56.27,,
1311.118,-56.33,,
1311.133,-56.22,,
1311.148,-55.99,,
1311.163,-56.09,,
1311.178,-56.27,,
1311.193,-56.27,,
1311.208,-56.0,,
1311.223,-55.99,,
1311.238,-56.26,,
1311.253,-56.07,,
1311.268,-55.84,,
1311.283,-55.99,,
1311.298,-56.11,,
1311.313,-56.11,,
1311.328,-56.03,,
1311.343,-56.07,,
1311.358,-56.2,,
1311.373,-56.53,,
1311.388,-56.32,,
1311.403,-56.11,,
1311.418,-56.32,,
1311.433,-56.39,,
1311.448,-56.02,,
1311.463,-56.11,,
1311.478,-56.33,,
1311.493,-56.26,,
1311.508,-56.12,,
1311.523,-56.1,,
1311.538,-56.22,,
1311.553,-56.54,,
1311.568,-56.22,,
1311.583,-56.07,,
1311.598,-56.45,,
1311.613,-56.52,,
1311.628,-56.19,,
1311.643,-56.31,,
1311.658,-56.66,,
1311.673,-56.75,,
1311.688,-56.61,,
1311.703,-56.41,,
1311.718,-56.64,,
1311.733,-56.97,,
1311.748,-56.85,,
1311.763,-56.46,,
1311.778,-56.6,,
1311.793,-56.97,,
1311.808,-56.56,,
1311.823,-56.49,,
1311.838,-56.82,,
1311.853,-57.12,,
1311.868,-56.89,,
1311.883,-56.66,,
1311.898,-56.97,,
1311.913,-57.41,,
1311.928,-57.2,,
1311.943,-56.91,,
1311.958,-57.14,,
1311.973,-57.48,,
1311.988,-57.14,,
1312.003,-57.03,,
1312.018,-57.36,,
1312.033,-57.51,,
1312.048,-57.35,,
1312.063,-57.08,,
1312.078,-57.35,,
1312.093,-57.69,,
1312.108,-57.35,,
1312.123,-57.2,,
1312.138,-57.4,,
1312.153,-57.7,,
1312.168,-57.45,,
1312.183,-57.35,,
1312.198,-57.3,,
1312.213,-57.67,,
1312.228,-57.58,,
1312.243,-57.31,,
1312.258,-57.22,,
1312.273,-57.62,,
1312.288,-57.66,,
1312.303,-57.28,,
1312.318,-57.33,,
1312.333,-57.59,,
1312.348,-57.42,,
1312.363,-57.12,,
1312.378,-57.05,,
1312.393,-57.17,,
1312.408,-57.16,,
1312.423,-56.97,,
1312.438,-56.75,,
1312.453,-57.06,,
1312.468,-57.26,,
1312.483,-56.84,,
1312.498,-56.93,,
1312.513,-57.38,,
1312.528,-57.08,,
1312.543,-56.83,,
1312.558,-56.77,,
1312.573,-57.04,,
1312.588,-57.03,,
1312.603,-56.76,,
1312.618,-56.9,,
1312.633,-57.07,,
1312.648,-57.22,,
1312.663,-56.72,,
1312.678,-56.67,,
1312.693,-57.1,,
1312.708,-56.97,,
1312.723,-56.58,,
1312.738,-56.41,,
1312.753,-56.67,,
1312.768,-56.72,,
1312.783,-56.67,,
1312.798,-56.56,,
1312.813,-56.66,,
1312.828,-56.57,,
1312.843,-56.45,,
1312.858,-56.26,,
1312.873,-56.71,,
1312.888,-56.79,,
1312.903,-56.49,,
1312.918,-56.31,,
1312.933,-56.48,,
1312.948,-56.53,,
1312.963,-56.37,,
1312.978,-56.34,,
1312.993,-56.36,,
1313.008,-56.3,,
1313.023,-56.08,,
1313.038,-56.29,,
1313.053,-56.47,,
1313.068,-56.5,,
1313.083,-56.19,,
1313.098,-56.1,,
1313.113,-56.4,,
1313.128,-56.31,,
1313.143,-56.19,,
1313.158,-56.22,,
1313.173,-56.3,,
1313.188,-56.2,,
1313.203,-56.19,,
1313.218,-56.24,,
1313.233,-56.27,,
1313.248,-56.18,,
1313.263,-56.34,,
1313.278,-56.35,,
1313.293,-56.35,,
1313.308,-56.33,,
1313.323,-56.3,,
1313.338,-56.29,,
1313.353,-56.36,,
1313.368,-56.43,,
1313.383,-56.32,,
1313.398,-56.39,,
1313.413,-56.46,,
1313.428,-56.38,,
1313.443,-56.61,,
1313.458,-56.68,,
1313.473,-56.42,,
1313.488,-56.49,,
1313.503,-56.53,,
1313.518,-56.39,,
1313.533,-56.56,,
1313.548,-56.69,,
1313.563,-56.64,,
1313.578,-56.51,,
1313.593,-56.61,,
1313.608,-56.58,,
1313.623,-56.35,,
1313.638,-56.55,,
1313.653,-56.34,,
1313.668,-56.33,,
1313.683,-56.37,,
1313.698,-56.09,,
1313.713,-56.23,,
1313.728,-56.47,,
1313.743,-56.44,,
1313.758,-56.2,,
1313.773,-56.39,,
1313.788,-56.47,,
1313.803,-56.29,,
1313.818,-56.28,,
1313.833,-56.6,,
1313.848,-56.42,,
1313.863,-56.53,,
1313.878,-56.3,,
1313.893,-56.34,,
1313.908,-56.63,,
1313.923,-56.47,,
1313.938,-56.21,,
1313.953,-56.39,,
1313.968,-56.47,,
1313.983,-56.18,,
1313.998,-56.21,,
1314.013,-56.55,,
1314.028,-56.59,,
1314.043,-56.31,,
1314.058,-56.12,,
1314.073,-56.2,,
1314.088,-56.5,,
1314.103,-56.42,,
1314.118,-56.16,,
1314.133,-56.39,,
1314.148,-56.51,,
1314.163,-56.27,,
1314.178,-56.25,,
1314.193,-56.56,,
1314.208,-56.51,,
1314.223,-56.27,,
1314.238,-56.14,,
1314.253,-56.36,,
1314.268,-56.48,,
1314.283,-56.26,,
1314.298,-56.03,,
1314.313,-56.25,,
1314.328,-56.42,,
1314.343,-56.17,,
1314.358,-56.07,,
1314.373,-56.3,,
1314.388,-56.64,,
1314.403,-56.37,,
1314.418,-56.24,,
1314.433,-56.48,,
1314.448,-56.67,,
1314.463,-56.37,,
1314.478,-56.32,,
1314.493,-56.55,,
1314.508,-56.63,,
1314.523,-56.47,,
1314.538,-56.33,,
1314.553,-56.47,,
1314.568,-56.4,,
1314.583,-56.26,,
1314.598,-56.02,,
1314.613,-56.19,,
1314.628,-56.52,,
1314.643,-56.08,,
1314.658,-56.09,,
1314.673,-56.44,,
1314.688,-56.46,,
1314.703,-56.44,,
1314.718,-56.38,,
1314.733,-56.49,,
1314.748,-56.47,,
1314.763,-56.45,,
1314.778,-56.38,,
1314.793,-56.51,,
1314.808,-56.77,,
1314.823,-56.53,,
1314.838,-56.32,,
1314.853,-56.59,,
1314.868,-56.61,,
1314.883,-56.59,,
1314.898,-56.58,,
1314.913,-56.62,,
1314.928,-56.59,,
1314.943,-56.62,,
1314.958,-56.55,,
1314.973,-56.68,,
1314.988,-56.76,,
1315.003,-56.66,,
1315.018,-56.37,,
1315.033,-56.71,,
1315.048,-56.75,,
1315.063,-56.75,,
1315.078,-56.66,,
1315.093,-56.69,,
1315.108,-56.75,,
1315.123,-56.64,,
1315.138,-56.5,,
1315.153,-56.61,,
1315.168,-56.77,,
1315.183,-56.61,,
1315.198,-56.56,,
1315.213,-56.71,,
1315.228,-56.81,,
1315.243,-56.82,,
1315.258,-56.69,,
1315.273,-56.61,,
1315.288,-56.85,,
1315.303,-56.8,,
1315.318,-56.61,,
1315.333,-56.66,,
1315.348,-56.86,,
1315.363,-56.67,,
1315.378,-56.57,,
1315.393,-56.6,,
1315.408,-56.4,,
1315.423,-56.41,,
1315.438,-56.39,,
1315.453,-56.15,,
1315.468,-56.28,,
1315.483,-56.29,,
1315.498,-56.13,,
1315.513,-56.14,,
1315.528,-56.38,,
1315.543,-56.3,,
1315.558,-56.11,,
1315.573,-56.31,,
1315.588,-56.4,,
1315.603,-56.42,,
1315.618,-56.41,,
1315.633,-56.38,,
1315.648,-56.54,,
1315.663,-56.69,,
1315.678,-56.32,,
1315.693,-56.24,,
1315.708,-56.55,,
1315.723,-56.48,,
1315.738,-56.17,,
1315.753,-56.37,,
1315.768,-56.51,,
1315.783,-56.24,,
1315.798,-56.13,,
1315.813,-56.18,,
1315.828,-56.23,,
1315.843,-56.19,,
1315.858,-56.12,,
1315.873,-56.04,,
1315.888,-56.4,,
1315.903,-56.32,,
1315.918,-55.95,,
1315.933,-56.14,,
1315.948,-56.41,,
1315.963,-56.22,,
1315.978,-56.01,,
1315.993,-56.31,,
1316.008,-56.4,,
1316.023,-56.39,,
1316.038,-56.2,,
1316.053,-56.28,,
1316.068,-56.37,,
1316.083,-56.35,,
1316.098,-56.07,,
1316.113,-56.01,,
1316.128,-56.3,,
1316.143,-56.19,,
1316.158,-55.98,,
1316.173,-56.16,,
1316.188,-56.29,,
1316.203,-56.07,,
1316.218,-56.08,,
1316.233,-56.14,,
1316.248,-56.13,,
1316.263,-56.22,,
1316.278,-56.38,,
1316.293,-56.29,,
1316.308,-56.64,,
1316.323,-56.53,,
1316.338,-56.32,,
1316.353,-56.48,,
1316.368,-56.74,,
1316.383,-56.62,,
1316.398,-56.25,,
1316.413,-56.58,,
1316.428,-56.67,,
1316.443,-56.5,,
1316.458,-56.59,,
1316.473,-56.81,,
1316.488,-56.77,,
1316.503,-56.73,,
1316.518,-56.83,,
1316.533,-56.64,,
1316.548,-56.92,,
1316.563,-56.83,,
1316.578,-56.68,,
1316.593,-56.78,,
1316.608,-57.04,,
1316.623,-57.01,,
1316.638,-56.68,,
1316.653,-56.86,,
1316.668,-56.76,,
1316.683,-56.76,,
1316.698,-56.88,,
1316.713,-56.94,,
1316.728,-56.85,,
1316.743,-56.82,,
1316.758,-56.87,,
1316.773,-56.9,,
1316.788,-56.8,,
1316.803,-56.83,,
1316.818,-56.47,,
1316.833,-56.58,,
1316.848,-56.77,,
1316.863,-56.58,,
1316.878,-56.81,,
1316.893,-56.73,,
1316.908,-56.61,,
1316.923,-56.71,,
1316.938,-56.77,,
1316.953,-56.68,,
1316.968,-56.63,,
1316.983,-56.78,,
1316.998,-56.8,,
1317.013,-56.61,,
1317.028,-56.51,,
1317.043,-56.6,,
1317.058,-56.68,,
1317.073,-56.47,,
1317.088,-56.53,,
1317.103,-56.58,,
1317.118,-56.59,,
1317.133,-56.64,,
1317.148,-56.55,,
1317.163,-56.58,,
1317.178,-56.59,,
1317.193,-56.59,,
1317.208,-56.52,,
1317.224,-56.55,,
1317.238,-56.57,,
1317.253,-56.5,,
1317.268,-56.45,,
1317.283,-56.41,,
1317.298,-56.51,,
1317.313,-56.18,,
1317.328,-56.13,,
1317.344,-56.36,,
1317.359,-56.17,,
1317.373,-56.24,,
1317.388,-56.2,,
1317.403,-56.34,,
1317.418,-56.28,,
1317.433,-56.35,,
1317.448,-56.33,,
1317.464,-56.36,,
1317.479,-56.25,,
1317.494,-56.22,,
1317.509,-56.25,,
1317.523,-56.31,,
1317.538,-56.48,,
1317.553,-56.08,,
1317.568,-56.14,,
1317.583,-56.53,,
1317.599,-56.35,,
1317.614,-56.21,,
1317.629,-56.06,,
1317.644,-56.18,,
1317.658,-56.33,,
1317.673,-56.23,,
1317.688,-56.18,,
1317.703,-56.21,,
1317.719,-56.24,,
1317.734,-56.21,,
1317.749,-56.18,,
1317.764,-56.25,,
1317.779,-56.1,,
1317.794,-56.12,,
1317.808,-56.17,,
1317.823,-56.24,,
1317.839,-56.35,,
1317.854,-56.21,,
1317.869,-56.27,,
1317.884,-56.26,,
1317.899,-56.24,,
1317.914,-56.29,,
1317.929,-56.24,,
1317.944,-56.32,,
1317.958,-56.22,,
1317.974,-56.2,,
1317.989,-56.23,,
1318.004,-56.14,,
1318.019,-56.14,,
1318.034,-56.38,,
1318.049,-56.35,,
1318.064,-55.99,,
1318.079,-56.3,,
1318.094,-56.32,,
1318.109,-56.24,,
1318.124,-56.5,,
1318.139,-56.42,,
1318.154,-56.44,,
1318.169,-56.56,,
1318.184,-56.57,,
1318.199,-56.39,,
1318.214,-56.37,,
1318.229,-56.49,,
1318.244,-56.51,,
1318.259,-56.62,,
1318.274,-56.63,,
1318.289,-56.57,,
1318.304,-56.41,,
1318.319,-56.6,,
1318.334,-56.68,,
1318.349,-56.53,,
1318.364,-56.83,,
1318.379,-56.52,,
1318.394,-56.52,,
1318.409,-56.62,,
1318.424,-56.67,,
1318.439,-56.5,,
1318.454,-56.49,,
1318.469,-56.53,,
1318.484,-56.4,,
1318.499,-56.59,,
1318.514,-56.75,,
1318.529,-56.52,,
1318.544,-56.45,,
1318.559,-56.72,,
1318.574,-56.69,,
1318.589,-56.34,,
1318.604,-56.58,,
1318.619,-56.46,,
1318.634,-56.47,,
1318.649,-56.71,,
1318.664,-56.62,,
1318.679,-56.42,,
1318.694,-56.48,,
1318.709,-56.79,,
1318.724,-56.58,,
1318.739,-56.68,,
1318.754,-56.74,,
1318.769,-56.61,,
1318.784,-56.67,,
1318.799,-56.75,,
1318.814,-56.69,,
1318.829,-56.95,,
1318.844,-56.94,,
1318.859,-56.81,,
1318.874,-56.64,,
1318.889,-56.84,,
1318.904,-56.87,,
1318.919,-56.61,,
1318.934,-56.62,,
1318.949,-56.57,,
1318.964,-56.68,,
1318.979,-56.72,,
1318.994,-56.64,,
1319.009,-56.51,,
1319.024,-56.56,,
1319.039,-56.67,,
1319.054,-56.59,,
1319.069,-56.74,,
1319.084,-56.82,,
1319.099,-56.7,,
1319.114,-56.74,,
1319.129,-56.7,,
1319.144,-56.76,,
1319.159,-56.69,,
1319.174,-56.63,,
1319.189,-56.62,,
1319.204,-56.72,,
1319.219,-56.71,,
1319.234,-56.78,,
1319.249,-56.81,,
1319.264,-56.61,,
1319.279,-56.78,,
1319.294,-56.63,,
1319.309,-56.65,,
1319.324,-56.68,,
1319.339,-56.56,,
1319.354,-56.65,,
1319.369,-56.55,,
1319.384,-56.71,,
1319.399,-56.71,,
1319.414,-56.69,,
1319.429,-56.69,,
1319.444,-56.69,,
1319.459,-56.64,,
1319.474,-56.75,,
1319.489,-56.99,,
1319.504,-56.66,,
1319.519,-56.44,,
1319.534,-56.69,,
1319.549,-56.77,,
1319.564,-56.73,,
1319.579,-56.73,,
1319.594,-56.83,,
1319.609,-56.86,,
1319.624,-56.78,,
1319.639,-56.86,,
1319.654,-56.83,,
1319.669,-56.86,,
1319.684,-56.81,,
1319.699,-56.87,,
1319.714,-56.83,,
1319.729,-56.94,,
1319.744,-56.51,,
1319.759,-56.57,,
1319.774,-56.95,,
1319.789,-56.74,,
1319.804,-56.56,,
1319.819,-56.76,,
1319.834,-56.64,,
1319.849,-56.64,,
1319.864,-56.57,,
1319.879,-56.69,,
1319.894,-56.85,,
1319.909,-56.67,,
1319.924,-56.58,,
1319.939,-56.6,,
1319.954,-56.89,,
1319.969,-56.7,,
1319.984,-56.51,,
1319.999,-56.6,,
1320.014,-56.95,,
1320.029,-56.91,,
1320.044,-56.55,,
1320.059,-56.65,,
1320.074,-56.92,,
1320.089,-56.49,,
1320.104,-56.42,,
1320.119,-56.47,,
1320.134,-56.58,,
1320.149,-56.45,,
1320.164,-56.27,,
1320.179,-56.44,,
1320.194,-56.59,,
1320.209,-56.48,,
1320.224,-56.44,,
1320.239,-56.45,,
1320.254,-56.46,,
1320.269,-56.46,,
1320.284,-56.2,,
1320.299,-56.3,,
1320.314,-56.64,,
1320.329,-56.37,,
1320.344,-56.34,,
1320.359,-56.49,,
1320.374,-56.69,,
1320.389,-56.61,,
1320.404,-56.47,,
1320.419,-56.57,,
1320.434,-56.46,,
1320.449,-56.51,,
1320.464,-56.38,,
1320.479,-56.41,,
1320.494,-56.41,,
1320.509,-56.4,,
1320.524,-56.41,,
1320.539,-56.46,,
1320.554,-56.65,,
1320.569,-56.35,,
1320.584,-56.25,,
1320.599,-56.53,,
1320.614,-56.49,,
1320.629,-56.26,,
1320.644,-56.28,,
1320.659,-56.64,,
1320.674,-56.35,,
1320.689,-56.21,,
1320.704,-56.34,,
1320.719,-56.26,,
1320.734,-56.31,,
1320.749,-56.24,,
1320.764,-56.29,,
1320.779,-56.28,,
1320.794,-56.33,,
1320.809,-56.25,,
1320.824,-56.24,,
1320.839,-56.49,,
1320.854,-56.35,,
1320.869,-56.21,,
1320.884,-56.43,,
1320.899,-56.58,,
1320.914,-56.37,,
1320.929,-56.33,,
1320.944,-56.7,,
1320.959,-56.77,,
1320.974,-56.45,,
1320.989,-56.56,,
1321.004,-56.92,,
1321.019,-56.58,,
1321.034,-56.35,,
1321.049,-56.59,,
1321.064,-56.82,,
1321.079,-56.41,,
1321.094,-56.48,,
1321.109,-56.42,,
1321.124,-56.63,,
1321.139,-56.71,,
1321.154,-56.4,,
1321.169,-56.57,,
1321.184,-56.9,,
1321.199,-56.72,,
1321.214,-56.46,,
1321.229,-56.62,,
1321.244,-57.13,,
1321.259,-56.83,,
1321.274,-56.59,,
1321.289,-56.75,,
1321.304,-57.08,,
1321.319,-56.72,,
1321.334,-56.6,,
1321.349,-56.86,,
1321.364,-57.0,,
1321.379,-56.64,,
1321.394,-56.43,,
1321.409,-56.74,,
1321.424,-56.77,,
1321.439,-56.75,,
1321.454,-56.63,,
1321.469,-56.79,,
1321.484,-57.18,,
1321.499,-56.89,,
1321.514,-56.8,,
1321.529,-57.13,,
1321.544,-57.25,,
1321.559,-56.75,,
1321.574,-56.78,,
1321.589,-57.2,,
1321.604,-57.02,,
1321.619,-56.69,,
1321.634,-56.87,,
1321.649,-57.19,,
1321.664,-56.7,,
1321.679,-56.58,,
1321.694,-56.96,,
1321.709,-56.98,,
1321.724,-56.92,,
1321.739,-56.7,,
1321.754,-56.82,,
1321.769,-57.31,,
1321.784,-57.08,,
1321.799,-56.65,,
1321.814,-56.86,,
1321.829,-57.15,,
1321.844,-57.0,,
1321.859,-56.66,,
1321.874,-56.84,,
1321.889,-57.06,,
1321.904,-56.67,,
1321.919,-56.67,,
1321.934,-56.93,,
1321.949,-56.94,,
1321.964,-56.49,,
1321.979,-56.58,,
1321.994,-56.71,,
1322.009,-56.63,,
1322.024,-56.47,,
1322.039,-56.59,,
1322.054,-56.55,,
1322.069,-56.52,,
1322.084,-56.7,,
1322.099,-56.59,,
1322.114,-56.67,,
1322.129,-56.88,,
1322.144,-56.68,,
1322.159,-56.65,,
1322.174,-56.99,,
1322.189,-56.91,,
1322.204,-56.69,,
1322.219,-56.7,,
1322.234,-56.97,,
1322.249,-56.55,,
1322.264,-56.45,,
1322.279,-56.6,,
1322.294,-56.76,,
1322.309,-56.68,,
1322.324,-56.67,,
1322.339,-56.68,,
1322.354,-56.71,,
1322.369,-56.64,,
1322.384,-56.58,,
1322.399,-56.59,,
1322.414,-56.59,,
1322.429,-56.62,,
1322.444,-56.64,,
1322.459,-56.52,,
1322.474,-56.88,,
1322.489,-56.49,,
1322.504,-56.44,,
1322.519,-56.82,,
1322.534,-56.72,,
1322.549,-56.41,,
1322.564,-56.44,,
1322.579,-56.69,,
1322.594,-56.38,,
1322.609,-56.39,,
1322.624,-56.28,,
1322.639,-56.35,,
1322.654,-56.35,,
1322.669,-56.4,,
1322.684,-56.49,,
1322.699,-56.49,,
1322.714,-56.54,,
1322.729,-56.48,,
1322.744,-56.49,,
1322.759,-56.81,,
1322.774,-56.45,,
1322.789,-56.26,,
1322.804,-56.63,,
1322.819,-56.86,,
1322.834,-56.53,,
1322.849,-56.32,,
1322.864,-56.64,,
1322.879,-56.79,,
1322.894,-56.4,,
1322.909,-56.48,,
1322.924,-56.81,,
1322.939,-56.73,,
1322.954,-56.46,,
1322.969,-56.55,,
1322.984,-56.83,,
1322.999,-56.99,,
1323.014,-56.84,,
1323.029,-56.83,,
1323.044,-57.02,,
1323.059,-57.43,,
1323.074,-57.03,,
1323.089,-56.78,,
1323.104,-57.1,,
1323.119,-57.3,,
1323.134,-56.78,,
1323.149,-56.71,,
1323.164,-57.17,,
1323.179,-56.9,,
1323.194,-56.57,,
1323.209,-56.65,,
1323.224,-57.07,,
1323.239,-56.77,,
1323.254,-56.66,,
1323.269,-56.91,,
1323.284,-57.16,,
1323.299,-56.75,,
1323.314,-56.54,,
1323.329,-56.78,,
1323.344,-56.94,,
1323.359,-56.62,,
1323.374,-56.36,,
1323.389,-56.68,,
1323.404,-57.02,,
1323.419,-56.69,,
1323.434,-56.42,,
1323.449,-56.59,,
1323.464,-56.83,,
1323.479,-56.35,,
1323.494,-56.37,,
1323.509,-56.79,,
1323.524,-56.47,,
1323.539,-56.21,,
1323.554,-56.41,,
1323.569,-56.92,,
1323.584,-56.53,,
1323.599,-56.49,,
1323.614,-56.62,,
1323.629,-56.95,,
1323.644,-56.73,,
1323.659,-56.53,,
1323.674,-56.84,,
1323.689,-56.87,,
1323.704,-56.65,,
1323.719,-56.49,,
1323.734,-56.85,,
1323.749,-57.19,,
1323.764,-56.8,,
1323.779,-56.63,,
1323.794,-56.95,,
1323.809,-57.06,,
1323.824,-56.66,,
1323.839,-56.65,,
1323.854,-57.07,,
1323.869,-57.0,,
1323.884,-56.73,,
1323.899,-56.9,,
1323.914,-57.16,,
1323.929,-56.72,,
1323.944,-56.66,,
1323.959,-56.98,,
1323.974,-57.17,,
1323.989,-56.85,,
1324.004,-56.69,,
1324.019,-56.78,,
1324.034,-56.85,,
1324.049,-56.75,,
1324.064,-56.55,,
1324.079,-56.67,,
1324.094,-56.66,,
1324.109,-56.51,,
1324.124,-56.6,,
1324.139,-56.9,,
1324.154,-57.08,,
1324.169,-56.71,,
1324.184,-56.76,,
1324.199,-57.13,,
1324.214,-57.08,,
1324.229,-56.71,,
1324.244,-56.86,,
1324.259,-57.13,,
1324.274,-56.96,,
1324.289,-56.62,,
1324.304,-56.96,,
1324.319,-57.17,,
1324.334,-56.76,,
1324.349,-56.85,,
1324.364,-57.25,,
1324.379,-57.23,,
1324.394,-57.0,,
1324.409,-56.91,,
1324.424,-57.02,,
1324.439,-57.05,,
1324.454,-56.9,,
1324.469,-57.02,,
1324.484,-57.16,,
1324.499,-57.14,,
1324.514,-56.83,,
1324.529,-56.77,,
1324.544,-57.12,,
1324.559,-57.18,,
1324.574,-56.65,,
1324.589,-56.74,,
1324.604,-57.15,,
1324.619,-56.96,,
1324.634,-56.71,,
1324.649,-57.07,,
1324.664,-57.31,,
1324.679,-56.84,,
1324.694,-56.78,,
1324.709,-57.16,,
1324.724,-57.12,,
1324.739,-56.8,,
1324.754,-56.64,,
1324.769,-56.78,,
1324.784,-56.82,,
1324.799,-56.73,,
1324.814,-56.67,,
1324.829,-56.93,,
1324.844,-56.88,,
1324.859,-56.72,,
1324.874,-56.9,,
1324.889,-57.14,,
1324.904,-57.22,,
1324.919,-56.87,,
1324.934,-57.07,,
1324.949,-57.35,,
1324.964,-56.99,,
1324.979,-56.72,,
1324.994,-57.07,,
1325.009,-57.09,,
1325.024,-56.71,,
1325.039,-56.69,,
1325.054,-56.97,,
1325.069,-56.86,,
1325.084,-56.63,,
1325.099,-56.88,,
1325.114,-57.17,,
1325.129,-56.76,,
1325.144,-56.53,,
1325.159,-56.69,,
1325.174,-56.85,,
1325.189,-56.7,,
1325.204,-56.54,,
1325.219,-56.8,,
1325.234,-56.83,,
1325.25,-56.59,,
1325.264,-56.56,,
1325.279,-56.82,,
1325.294,-57.13,,
1325.309,-56.79,,
1325.324,-56.57,,
1325.339,-56.99,,
1325.354,-56.96,,
1325.37,-56.6,,
1325.385,-56.73,,
1325.4,-57.15,,
1325.414,-56.99,,
1325.429,-56.76,,
1325.444,-57.04,,
1325.459,-57.4,,
1325.474,-56.95,,
1325.49,-56.85,,
1325.505,-57.15,,
1325.52,-57.22,,
1325.535,-57.2,,
1325.549,-56.93,,
1325.564,-57.01,,
1325.579,-57.14,,
1325.594,-57.09,,
1325.609,-56.9,,
1325.625,-57.06,,
1325.64,-56.99,,
1325.655,-56.8,,
1325.67,-56.73,,
1325.685,-56.98,,
1325.699,-56.91,,
1325.714,-56.63,,
1325.729,-56.46,,
1325.745,-56.83,,
1325.76,-56.86,,
1325.775,-56.51,,
1325.79,-56.5,,
1325.805,-56.84,,
1325.82,-56.68,,
1325.834,-56.36,,
1325.849,-56.48,,
1325.865,-56.76,,
1325.88,-56.48,,
1325.895,-56.21,,
1325.91,-56.26,,
1325.925,-56.44,,
1325.94,-56.31,,
1325.955,-56.03,,
1325.97,-56.33,,
1325.984,-56.41,,
1326.0,-56.13,,
1326.015,-56.07,,
1326.03,-56.42,,
1326.045,-56.38,,
1326.06,-56.15,,
1326.075,-56.33,,
1326.09,-56.54,,
1326.105,-56.38,,
1326.12,-56.15,,
1326.135,-56.47,,
1326.15,-56.72,,
1326.165,-56.34,,
1326.18,-56.25,,
1326.195,-56.69,,
1326.21,-56.54,,
1326.225,-56.14,,
1326.24,-56.26,,
1326.255,-56.49,,
1326.27,-56.3,,
1326.285,-56.05,,
1326.3,-56.07,,
1326.315,-56.12,,
1326.33,-56.13,,
1326.345,-55.89,,
1326.36,-55.85,,
1326.375,-56.14,,
1326.39,-56.08,,
1326.405,-55.74,,
1326.42,-55.87,,
1326.435,-56.09,,
1326.45,-55.9,,
1326.465,-55.72,,
1326.48,-56.03,,
1326.495,-56.11,,
1326.51,-55.82,,
1326.525,-55.81,,
1326.54,-56.05,,
1326.555,-56.09,,
1326.57,-55.93,,
1326.585,-55.92,,
1326.6,-56.16,,
1326.615,-56.12,,
1326.63,-55.79,,
1326.645,-56.1,,
1326.66,-56.3,,
1326.675,-56.08,,
1326.69,-55.86,,
1326.705,-56.04,,
1326.72,-56.19,,
1326.735,-56.27,,
1326.75,-56.29,,
1326.765,-56.37,,
1326.78,-56.34,,
1326.795,-56.34,,
1326.81,-56.27,,
1326.825,-56.45,,
1326.84,-56.38,,
1326.855,-56.36,,
1326.87,-56.31,,
1326.885,-56.42,,
1326.9,-56.33,,
1326.915,-56.18,,
1326.93,-56.26,,
1326.945,-56.32,,
1326.96,-56.53,,
1326.975,-56.12,,
1326.99,-56.15,,
1327.005,-56.52,,
1327.02,-56.5,,
1327.035,-56.17,,
1327.05,-56.36,,
1327.065,-56.61,,
1327.08,-56.42,,
1327.095,-56.2,,
1327.11,-56.37,,
1327.125,-56.52,,
1327.14,-56.24,,
1327.155,-56.1,,
1327.17,-56.41,,
1327.185,-56.43,,
1327.2,-56.05,,
1327.215,-56.18,,
1327.23,-56.48,,
1327.245,-56.3,,
1327.26,-56.18,,
1327.275,-56.44,,
1327.29,-56.66,,
1327.305,-56.25,,
1327.32,-56.32,,
1327.335,-56.71,,
1327.35,-56.68,,
1327.365,-56.63,,
1327.38,-56.47,,
1327.395,-56.61,,
1327.41,-56.6,,
1327.425,-56.54,,
1327.44,-56.58,,
1327.455,-56.58,,
1327.47,-56.51,,
1327.485,-56.4,,
1327.5,-56.46,,
1327.515,-56.47,,
1327.53,-56.43,,
1327.545,-56.38,,
1327.56,-56.41,,
1327.575,-56.46,,
1327.59,-56.31,,
1327.605,-56.2,,
1327.62,-56.5,,
1327.635,-56.63,,
1327.65,-56.36,,
1327.665,-56.34,,
1327.68,-56.61,,
1327.695,-56.55,,
1327.71,-56.48,,
1327.725,-56.57,,
1327.74,-56.71,,
1327.755,-56.52,,
1327.77,-56.31,,
1327.785,-56.53,,
1327.8,-56.58,,
1327.815,-56.49,,
1327.83,-56.43,,
1327.845,-56.56,,
1327.86,-56.56,,
1327.875,-56.39,,
1327.89,-56.47,,
1327.905,-56.48,,
1327.92,-56.51,,
1327.935,-56.57,,
1327.95,-56.76,,
1327.965,-56.51,,
1327.98,-56.6,,
1327.995,-56.91,,
1328.01,-56.65,,
1328.025,-56.57,,
1328.04,-56.79,,
1328.055,-56.85,,
1328.07,-56.65,,
1328.085,-56.56,,
1328.1,-56.72,,
1328.115,-56.85,,
1328.13,-56.62,,
1328.145,-56.6,,
1328.16,-56.85,,
1328.175,-56.8,,
1328.19,-56.95,,
1328.205,-56.96,,
1328.22,-56.78,,
1328.235,-56.88,,
1328.25,-56.94,,
1328.265,-56.85,,
1328.28,-56.72,,
1328.295,-56.88,,
1328.31,-57.01,,
1328.325,-56.86,,
1328.34,-56.65,,
1328.355,-56.9,,
1328.37,-56.99,,
1328.385,-56.82,,
1328.4,-56.83,,
1328.415,-57.1,,
1328.43,-57.01,,
1328.445,-56.72,,
1328.46,-56.88,,
1328.475,-57.11,,
1328.49,-56.95,,
1328.505,-56.82,,
1328.52,-57.08,,
1328.535,-57.12,,
1328.55,-56.84,,
1328.565,-57.05,,
1328.58,-57.13,,
1328.595,-57.09,,
1328.61,-57.15,,
1328.625,-57.12,,
1328.64,-57.04,,
1328.655,-57.0,,
1328.67,-57.05,,
1328.685,-57.02,,
1328.7,-56.95,,
1328.715,-56.96,,
1328.73,-57.07,,
1328.745,-57.08,,
1328.76,-56.98,,
1328.775,-56.9,,
1328.79,-56.88,,
1328.805,-57.11,,
1328.82,-57.33,,
1328.835,-56.95,,
1328.85,-56.77,,
1328.865,-57.27,,
1328.88,-57.4,,
1328.895,-56.96,,
1328.91,-57.09,,
1328.925,-57.63,,
1328.94,-57.35,,
1328.955,-56.98,,
1328.97,-57.22,,
1328.985,-57.52,,
1329.0,-57.09,,
1329.015,-56.89,,
1329.03,-57.15,,
1329.045,-57.17,,
1329.06,-56.8,,
1329.075,-56.87,,
1329.09,-57.18,,
1329.105,-57.05,,
1329.12,-56.65,,
1329.135,-56.96,,
1329.15,-57.2,,
1329.165,-56.96,,
1329.18,-56.92,,
1329.195,-56.88,,
1329.21,-56.9,,
1329.225,-56.99,,
1329.24,-56.83,,
1329.255,-57.03,,
1329.27,-56.97,,
1329.285,-56.99,,
1329.3,-56.88,,
1329.315,-56.95,,
1329.33,-56.92,,
1329.345,-57.03,,
1329.36,-57.03,,
1329.375,-56.87,,
1329.39,-56.95,,
1329.405,-56.64,,
1329.42,-56.6,,
1329.435,-56.81,,
1329.45,-56.85,,
1329.465,-56.63,,
1329.48,-56.77,,
1329.495,-56.86,,
1329.51,-56.7,,
1329.525,-56.56,,
1329.54,-56.74,,
1329.555,-56.82,,
1329.57,-56.54,,
1329.585,-56.6,,
1329.6,-56.79,,
1329.615,-56.74,,
1329.63,-56.38,,
1329.645,-56.6,,
1329.66,-56.63,,
1329.675,-56.45,,
1329.69,-56.36,,
1329.705,-56.56,,
1329.72,-56.66,,
1329.735,-56.4,,
1329.75,-56.36,,
1329.765,-56.52,,
1329.78,-56.61,,
1329.795,-56.47,,
1329.81,-56.57,,
1329.825,-56.28,,
1329.84,-56.38,,
1329.855,-56.72,,
1329.87,-56.55,,
1329.885,-56.33,,
1329.9,-56.37,,
1329.915,-56.69,,
1329.93,-56.35,,
1329.945,-56.2,,
1329.96,-56.4,,
1329.975,-56.43,,
1329.99,-56.19,,
1330.005,-56.22,,
1330.02,-56.58,,
1330.035,-56.46,,
1330.05,-56.31,,
1330.065,-56.5,,
1330.08,-56.69,,
1330.095,-56.36,,
1330.11,-56.29,,
1330.125,-56.67,,
1330.14,-56.62,,
1330.155,-56.39,,
1330.17,-56.47,,
1330.185,-56.72,,
1330.2,-56.5,,
1330.215,-56.35,,
1330.23,-56.52,,
1330.245,-56.75,,
1330.26,-56.42,,
1330.275,-56.39,,
1330.29,-56.61,,
1330.305,-56.66,,
1330.32,-56.35,,
1330.335,-56.59,,
1330.35,-56.79,,
1330.365,-56.5,,
1330.38,-56.35,,
1330.395,-56.53,,
1330.41,-56.99,,
1330.425,-56.8,,
1330.44,-56.56,,
1330.455,-56.77,,
1330.47,-57.04,,
1330.485,-56.59,,
1330.5,-56.52,,
1330.515,-56.95,,
1330.53,-56.86,,
1330.545,-56.49,,
1330.56,-56.57,,
1330.575,-56.84,,
1330.59,-56.5,,
1330.605,-56.36,,
1330.62,-56.69,,
1330.635,-56.96,,
1330.65,-56.72,,
1330.665,-56.62,,
1330.68,-56.87,,
1330.695,-56.98,,
1330.71,-56.75,,
1330.725,-56.71,,
1330.74,-56.84,,
1330.755,-56.87,,
1330.77,-56.69,,
1330.785,-56.72,,
1330.8,-56.95,,
1330.815,-56.77,,
1330.83,-56.65,,
1330.845,-56.65,,
1330.86,-56.71,,
1330.875,-56.44,,
1330.89,-56.47,,
1330.905,-56.71,,
1330.92,-56.68,,
1330.935,-56.49,,
1330.95,-56.57,,
1330.965,-56.76,,
1330.98,-56.63,,
1330.995,-56.62,,
1331.01,-56.76,,
1331.025,-56.78,,
1331.04,-56.74,,
1331.055,-56.67,,
1331.07,-56.86,,
1331.085,-56.83,,
1331.1,-56.7,,
1331.115,-56.79,,
1331.13,-56.85,,
1331.145,-56.79,,
1331.16,-56.64,,
1331.175,-56.73,,
1331.19,-56.69,,
1331.205,-56.59,,
1331.22,-56.58,,
1331.235,-56.68,,
1331.25,-56.45,,
1331.265,-56.63,,
1331.28,-56.64,,
1331.295,-56.5,,
1331.31,-56.41,,
1331.325,-56.76,,
1331.34,-56.63,,
1331.355,-56.29,,
1331.37,-56.48,,
1331.385,-56.68,,
1331.4,-56.55,,
1331.415,-56.32,,
1331.43,-56.59,,
1331.445,-56.57,,
1331.46,-56.38,,
1331.475,-56.34,,
1331.49,-56.59,,
1331.505,-56.54,,
1331.52,-56.26,,
1331.535,-56.48,,
1331.55,-56.6,,
1331.565,-56.55,,
1331.58,-56.5,,
1331.595,-56.78,,
1331.61,-56.81,,
1331.625,-56.53,,
1331.64,-56.59,,
1331.655,-56.54,,
1331.67,-56.55,,
1331.685,-56.62,,
1331.7,-56.65,,
1331.715,-56.52,,
1331.73,-56.57,,
1331.745,-56.81,,
1331.76,-56.76,,
1331.775,-56.61,,
1331.79,-56.62,,
1331.805,-56.81,,
1331.82,-56.62,,
1331.835,-56.6,,
1331.85,-56.93,,
1331.865,-56.86,,
1331.88,-56.75,,
1331.895,-56.81,,
1331.91,-57.01,,
1331.925,-56.74,,
1331.94,-56.66,,
1331.955,-56.82,,
1331.97,-56.89,,
1331.985,-56.85,,
1332.0,-56.64,,
1332.015,-56.71,,
1332.03,-56.75,,
1332.045,-56.56,,
1332.06,-56.62,,
1332.075,-56.69,,
1332.09,-56.53,,
1332.105,-56.4,,
1332.12,-56.58,,
1332.135,-56.7,,
1332.15,-56.52,,
1332.165,-56.48,,
1332.18,-56.66,,
1332.195,-56.74,,
1332.21,-56.54,,
1332.225,-56.68,,
1332.24,-56.9,,
1332.255,-57.12,,
1332.27,-56.61,,
1332.285,-56.72,,
1332.3,-57.19,,
1332.315,-57.01,,
1332.33,-56.71,,
1332.345,-56.87,,
1332.36,-57.27,,
1332.375,-56.89,,
1332.39,-56.63,,
1332.405,-56.71,,
1332.42,-56.91,,
1332.435,-56.79,,
1332.45,-56.62,,
1332.465,-56.74,,
1332.48,-56.87,,
1332.495,-56.77,,
1332.51,-56.73,,
1332.525,-56.93,,
1332.54,-57.05,,
1332.555,-57.05,,
1332.57,-56.99,,
1332.585,-56.96,,
1332.6,-57.04,,
1332.615,-56.94,,
1332.63,-57.01,,
1332.645,-57.01,,
1332.66,-57.1,,
1332.675,-57.03,,
1332.69,-57.04,,
1332.705,-56.98,,
1332.72,-57.1,,
1332.735,-57.06,,
1332.75,-56.9,,
1332.765,-56.98,,
1332.78,-56.97,,
1332.795,-57.05,,
1332.81,-57.04,,
1332.825,-57.13,,
1332.84,-57.14,,
1332.855,-57.01,,
1332.87,-57.13,,
1332.885,-57.12,,
1332.9,-57.2,,
1332.915,-57.18,,
1332.93,-57.23,,
1332.945,-57.22,,
1332.96,-57.27,,
1332.975,-57.29,,
1332.99,-57.13,,
1333.005,-57.12,,
1333.02,-57.27,,
1333.035,-57.2,,
1333.05,-57.14,,
1333.065,-57.11,,
1333.08,-57.22,,
1333.095,-57.23,,
1333.11,-57.31,,
1333.125,-57.27,,
1333.141,-57.36,,
1333.155,-57.24,,
1333.17,-57.26,,
1333.185,-57.51,,
1333.2,-57.39,,
1333.215,-57.26,,
1333.23,-57.28,,
1333.245,-57.18,,
1333.26,-56.87,,
1333.276,-56.91,,
1333.29,-56.99,,
1333.305,-56.94,,
1333.32,-56.91,,
1333.335,-56.8,,
1333.35,-56.93,,
1333.365,-56.75,,
1333.38,-56.62,,
1333.396,-56.77,,
1333.411,-57.19,,
1333.426,-57.1,,
1333.44,-56.72,,
1333.455,-56.99,,
1333.47,-57.36,,
1333.485,-57.03,,
1333.5,-56.86,,
1333.516,-57.22,,
1333.531,-57.33,,
1333.546,-56.86,,
1333.561,-56.68,,
1333.575,-57.0,,
1333.59,-56.98,,
1333.605,-56.59,,
1333.62,-56.63,,
1333.635,-56.96,,
1333.651,-56.78,,
1333.666,-56.43,,
1333.681,-56.69,,
1333.696,-56.88,,
1333.711,-56.62,,
1333.725,-56.51,,
1333.74,-56.94,,
1333.755,-57.0,,
1333.771,-56.53,,
1333.786,-56.66,,
1333.801,-56.97,,
1333.816,-56.73,,
1333.831,-56.42,,
1333.846,-56.58,,
1333.86,-56.8,,
1333.875,-56.34,,
1333.891,-56.28,,
1333.906,-56.53,,
1333.921,-56.47,,
1333.936,-56.12,,
1333.951,-56.18,,
1333.966,-56.55,,
1333.981,-56.31,,
1333.996,-56.13,,
1334.01,-56.35,,
1334.026,-56.63,,
1334.041,-56.29,,
1334.056,-56.26,,
1334.071,-56.67,,
1334.086,-56.63,,
1334.101,-56.16,,
1334.116,-56.3,,
1334.131,-56.63,,
1334.146,-56.26,,
1334.161,-56.14,,
1334.176,-56.37,,
1334.191,-56.36,,
1334.206,-55.98,,
1334.221,-56.09,,
1334.236,-56.41,,
1334.251,-56.3,,
1334.266,-56.19,,
1334.281,-56.34,,
1334.296,-56.61,,
1334.311,-56.24,,
1334.326,-56.25,,
1334.341,-56.61,,
1334.356,-56.6,,
1334.371,-56.31,,
1334.386,-56.48,,
1334.401,-56.76,,
1334.416,-56.45,,
1334.431,-56.27,,
1334.446,-56.51,,
1334.461,-56.64,,
1334.476,-56.27,,
1334.491,-56.25,,
1334.506,-56.54,,
1334.521,-56.35,,
1334.536,-56.11,,
1334.551,-56.27,,
1334.566,-56.61,,
1334.581,-56.34,,
1334.596,-56.26,,
1334.611,-56.56,,
1334.626,-56.71,,
1334.641,-56.37,,
1334.656,-56.38,,
1334.671,-56.78,,
1334.686,-56.62,,
1334.701,-56.43,,
1334.716,-56.59,,
1334.731,-56.75,,
1334.746,-56.34,,
1334.761,-56.19,,
1334.776,-56.52,,
1334.791,-56.54,,
1334.806,-56.24,,
1334.821,-56.39,,
1334.836,-56.67,,
1334.851,-56.46,,
1334.866,-56.24,,
1334.881,-56.48,,
1334.896,-56.75,,
1334.911,-56.49,,
1334.926,-56.31,,
1334.941,-56.66,,
1334.956,-56.8,,
1334.971,-56.4,,
1334.986,-56.49,,
1335.001,-56.89,,
1335.016,-56.77,,
1335.031,-56.41,,
1335.046,-56.6,,
1335.061,-56.91,,
1335.076,-56.58,,
1335.091,-56.29,,
1335.106,-56.59,,
1335.121,-56.83,,
1335.136,-56.48,,
1335.151,-56.56,,
1335.166,-56.76,,
1335.181,-56.64,,
1335.196,-56.38,,
1335.211,-56.66,,
1335.226,-56.88,,
1335.241,-56.55,,
1335.256,-56.42,,
1335.271,-56.66,,
1335.286,-56.86,,
1335.301,-56.47,,
1335.316,-56.6,,
1335.331,-56.94,,
1335.346,-56.64,,
1335.361,-56.33,,
1335.376,-56.65,,
1335.391,-56.78,,
1335.406,-56.45,,
1335.421,-56.65,,
1335.436,-56.73,,
1335.451,-56.49,,
1335.466,-56.44,,
1335.481,-56.68,,
1335.496,-56.76,,
1335.511,-56.51,,
1335.526,-56.51,,
1335.541,-56.74,,
1335.556,-56.68,,
1335.571,-56.48,,
1335.586,-56.78,,
1335.601,-56.8,,
1335.616,-56.61,,
1335.631,-56.53,,
1335.646,-56.82,,
1335.661,-56.79,,
1335.676,-56.47,,
1335.691,-56.63,,
1335.706,-56.65,,
1335.721,-56.52,,
1335.736,-56.41,,
1335.751,-56.63,,
1335.766,-56.64,,
1335.781,-56.48,,
1335.796,-56.56,,
1335.811,-56.83,,
1335.826,-56.62,,
1335.841,-56.27,,
1335.856,-56.64,,
1335.871,-56.72,,
1335.886,-56.56,,
1335.901,-56.58,,
1335.916,-56.84,,
1335.931,-56.79,,
1335.946,-56.6,,
1335.961,-56.68,,
1335.976,-56.9,,
1335.991,-56.78,,
1336.006,-56.39,,
1336.021,-56.51,,
1336.036,-56.75,,
1336.051,-56.58,,
1336.066,-56.44,,
1336.081,-56.62,,
1336.096,-56.66,,
1336.111,-56.58,,
1336.126,-56.45,,
1336.141,-56.61,,
1336.156,-56.56,,
1336.171,-56.36,,
1336.186,-56.69,,
1336.201,-56.9,,
1336.216,-56.68,,
1336.231,-56.57,,
1336.246,-56.87,,
1336.261,-56.8,,
1336.276,-56.6,,
1336.291,-56.53,,
1336.306,-56.83,,
1336.321,-56.77,,
1336.336,-56.31,,
1336.351,-56.52,,
1336.366,-56.77,,
1336.381,-56.52,,
1336.396,-56.32,,
1336.411,-56.69,,
1336.426,-56.46,,
1336.441,-56.25,,
1336.456,-56.57,,
1336.471,-56.77,,
1336.486,-56.47,,
1336.501,-56.46,,
1336.516,-56.65,,
1336.531,-56.68,,
1336.546,-56.4,,
1336.561,-56.48,,
1336.576,-56.78,,
1336.591,-56.43,,
1336.606,-56.31,,
1336.621,-56.38,,
1336.636,-56.46,,
1336.651,-56.19,,
1336.666,-56.15,,
1336.681,-56.46,,
1336.696,-56.33,,
1336.711,-56.19,,
1336.726,-56.31,,
1336.741,-56.58,,
1336.756,-56.31,,
1336.771,-56.36,,
1336.786,-56.54,,
1336.801,-56.51,,
1336.816,-56.21,,
1336.831,-56.29,,
1336.846,-56.64,,
1336.861,-56.39,,
1336.876,-56.23,,
1336.891,-56.44,,
1336.906,-56.58,,
1336.921,-56.19,,
1336.936,-56.18,,
1336.951,-56.42,,
1336.966,-56.34,,
1336.981,-56.02,,
1336.996,-56.08,,
1337.011,-56.44,,
1337.026,-56.32,,
1337.041,-56.05,,
1337.056,-56.25,,
1337.071,-56.42,,
1337.086,-56.1,,
1337.101,-56.13,,
1337.116,-56.47,,
1337.131,-56.43,,
1337.146,-56.13,,
1337.161,-56.22,,
1337.176,-56.58,,
1337.191,-56.2,,
1337.206,-56.01,,
1337.221,-56.18,,
1337.236,-56.31,,
1337.251,-55.97,,
1337.266,-55.99,,
1337.281,-56.34,,
1337.296,-56.29,,
1337.311,-56.0,,
1337.326,-55.96,,
1337.341,-56.36,,
1337.356,-56.25,,
1337.371,-56.02,,
1337.386,-56.32,,
1337.401,-56.64,,
1337.416,-56.28,,
1337.431,-56.15,,
1337.446,-56.52,,
1337.461,-56.56,,
1337.476,-56.14,,
1337.491,-56.17,,
1337.506,-56.4,,
1337.521,-56.26,,
1337.536,-55.99,,
1337.551,-56.15,,
1337.566,-56.42,,
1337.581,-56.02,,
1337.596,-55.92,,
1337.611,-56.23,,
1337.626,-56.32,,
1337.641,-56.11,,
1337.656,-56.13,,
1337.671,-56.49,,
1337.686,-56.3,,
1337.701,-56.14,,
1337.716,-56.41,,
1337.731,-56.65,,
1337.746,-56.3,,
1337.761,-56.29,,
1337.776,-56.57,,
1337.791,-56.56,,
1337.806,-56.2,,
1337.821,-56.24,,
1337.836,-56.49,,
1337.851,-56.3,,
1337.866,-56.07,,
1337.881,-56.29,,
1337.896,-56.52,,
1337.911,-56.12,,
1337.926,-56.14,,
1337.941,-56.49,,
1337.956,-56.33,,
1337.971,-56.09,,
1337.986,-56.35,,
1338.001,-56.72,,
1338.016,-56.36,,
1338.031,-56.24,,
1338.046,-56.55,,
1338.061,-56.7,,
1338.076,-56.31,,
1338.091,-56.34,,
1338.106,-56.76,,
1338.121,-56.39,,
1338.136,-56.22,,
1338.151,-56.63,,
1338.166,-56.52,,
1338.181,-56.28,,
1338.196,-56.6,,
1338.211,-56.69,,
1338.226,-56.58,,
1338.241,-56.49,,
1338.256,-56.72,,
1338.271,-56.79,,
1338.286,-56.48,,
1338.301,-56.61,,
1338.316,-56.73,,
1338.331,-56.69,,
1338.346,-56.53,,
1338.361,-56.58,,
1338.376,-56.65,,
1338.391,-56.42,,
1338.406,-56.19,,
1338.421,-56.42,,
1338.436,-56.35,,
1338.451,-56.15,,
1338.466,-56.13,,
1338.481,-56.45,,
1338.496,-56.37,,
1338.511,-56.17,,
1338.526,-56.36,,
1338.541,-56.47,,
1338.556,-56.37,,
1338.571,-56.16,,
1338.586,-56.55,,
1338.601,-56.62,,
1338.616,-56.31,,
1338.631,-56.38,,
1338.646,-56.57,,
1338.661,-56.55,,
1338.676,-56.33,,
1338.691,-56.51,,
1338.706,-56.5,,
1338.721,-56.25,,
1338.736,-56.07,,
1338.751,-56.31,,
1338.766,-56.26,,
1338.781,-55.98,,
1338.796,-56.06,,
1338.811,-56.21,,
1338.826,-56.27,,
1338.841,-56.14,,
1338.856,-56.29,,
1338.871,-56.38,,
1338.886,-56.24,,
1338.901,-56.24,,
1338.916,-56.32,,
1338.931,-56.34,,
1338.946,-56.16,,
1338.961,-56.35,,
1338.976,-56.46,,
1338.991,-56.29,,
1339.006,-56.2,,
1339.021,-56.35,,
1339.036,-56.29,,
1339.051,-56.13,,
1339.066,-56.09,,
1339.081,-56.21,,
1339.096,-56.21,,
1339.111,-55.94,,
1339.126,-56.24,,
1339.141,-56.25,,
1339.156,-56.18,,
1339.171,-56.33,,
1339.186,-56.25,,
1339.201,-56.04,,
1339.216,-56.17,,
1339.231,-56.27,,
1339.246,-56.15,,
1339.261,-56.07,,
1339.276,-56.26,,
1339.291,-56.3,,
1339.306,-56.09,,
1339.321,-56.13,,
1339.336,-56.36,,
1339.351,-56.19,,
1339.366,-56.07,,
1339.381,-56.28,,
1339.396,-56.36,,
1339.411,-56.22,,
1339.426,-56.2,,
1339.441,-56.52,,
1339.456,-56.49,,
1339.471,-56.4,,
1339.486,-56.41,,
1339.501,-56.65,,
1339.516,-56.63,,
1339.531,-56.35,,
1339.546,-56.54,,
1339.561,-56.75,,
1339.576,-56.75,,
1339.591,-56.48,,
1339.606,-56.66,,
1339.621,-56.63,,
1339.636,-56.41,,
1339.651,-56.47,,
1339.666,-56.51,,
1339.681,-56.43,,
1339.696,-56.19,,
1339.711,-56.42,,
1339.726,-56.49,,
1339.741,-56.45,,
1339.756,-56.45,,
1339.771,-56.67,,
1339.786,-56.71,,
1339.801,-56.51,,
1339.816,-56.68,,
1339.831,-56.79,,
1339.846,-56.73,,
1339.861,-56.56,,
1339.876,-56.51,,
1339.891,-56.56,,
1339.906,-56.44,,
1339.921,-56.57,,
1339.936,-56.42,,
1339.951,-56.51,,
1339.966,-56.5,,
1339.981,-56.41,,
1339.996,-56.47,,
1340.011,-56.39,,
1340.026,-56.43,,
1340.041,-56.41,,
1340.056,-56.48,,
1340.071,-56.49,,
1340.086,-56.48,,
1340.101,-56.59,,
1340.116,-56.62,,
1340.131,-56.58,,
1340.146,-56.63,,
1340.161,-56.4,,
1340.176,-56.29,,
1340.191,-56.68,,
1340.206,-56.79,,
1340.221,-56.37,,
1340.236,-56.37,,
1340.251,-56.79,,
1340.266,-56.65,,
1340.281,-56.26,,
1340.296,-56.44,,
1340.311,-56.75,,
1340.326,-56.38,,
1340.341,-56.16,,
1340.356,-56.56,,
1340.371,-56.75,,
1340.386,-56.4,,
1340.401,-56.29,,
1340.416,-56.69,,
1340.431,-56.7,,
1340.446,-56.24,,
1340.461,-56.41,,
1340.476,-56.83,,
1340.491,-56.62,,
1340.506,-56.34,,
1340.521,-56.54,,
1340.536,-56.81,,
1340.551,-56.51,,
1340.566,-56.64,,
1340.581,-56.79,,
1340.596,-56.64,,
1340.611,-56.39,,
1340.626,-56.77,,
1340.641,-56.88,,
1340.656,-56.51,,
1340.671,-56.5,,
1340.686,-56.86,,
1340.701,-56.95,,
1340.716,-56.59,,
1340.731,-56.81,,
1340.746,-57.12,,
1340.761,-56.78,,
1340.776,-56.53,,
1340.791,-56.83,,
1340.806,-56.87,,
1340.821,-56.53,,
1340.836,-56.51,,
1340.851,-56.79,,
1340.866,-56.54,,
1340.881,-56.53,,
1340.896,-56.95,,
1340.911,-57.06,,
1340.926,-56.53,,
1340.941,-56.68,,
1340.956,-57.02,,
1340.971,-56.85,,
1340.986,-56.93,,
1341.001,-57.1,,
1341.016,-57.04,,
1341.031,-56.74,,
1341.046,-57.1,,
1341.061,-57.12,,
1341.076,-56.92,,
1341.091,-57.05,,
1341.106,-57.13,,
1341.121,-57.07,,
1341.136,-56.65,,
1341.151,-56.87,,
1341.167,-56.92,,
1341.181,-56.83,,
1341.196,-56.68,,
1341.211,-56.78,,
1341.226,-56.85,,
1341.241,-56.73,,
1341.256,-56.69,,
1341.271,-56.8,,
1341.286,-56.79,,
1341.302,-56.65,,
1341.316,-56.6,,
1341.331,-56.74,,
1341.346,-56.74,,
1341.361,-56.71,,
1341.376,-56.71,,
1341.391,-56.62,,
1341.406,-56.99,,
1341.422,-56.76,,
1341.437,-56.42,,
1341.452,-56.69,,
1341.466,-56.91,,
1341.481,-56.45,,
1341.496,-56.27,,
1341.511,-56.51,,
1341.526,-56.59,,
1341.542,-56.25,,
1341.557,-56.35,,
1341.572,-56.38,,
1341.587,-56.17,,
1341.601,-56.26,,
1341.616,-56.39,,
1341.631,-56.3,,
1341.646,-56.13,,
1341.661,-56.34,,
1341.677,-56.62,,
1341.692,-56.44,,
1341.707,-56.31,,
1341.722,-56.45,,
1341.737,-56.54,,
1341.751,-56.24,,
1341.766,-56.29,,
1341.781,-56.47,,
1341.797,-56.44,,
1341.812,-56.27,,
1341.827,-56.37,,
1341.842,-56.47,,
1341.857,-56.3,,
1341.872,-56.27,,
1341.887,-56.32,,
1341.901,-56.34,,
1341.917,-56.17,,
1341.932,-56.3,,
1341.947,-56.54,,
1341.962,-56.53,,
1341.977,-56.32,,
1341.992,-56.2,,
1342.007,-56.29,,
1342.022,-56.39,,
1342.036,-56.33,,
1342.052,-56.12,,
1342.067,-55.99,,
1342.082,-56.11,,
1342.097,-56.05,,
1342.112,-56.0,,
1342.127,-55.89,,
1342.142,-56.08,,
1342.157,-56.15,,
1342.172,-56.04,,
1342.187,-56.07,,
1342.202,-56.24,,
1342.217,-56.26,,
1342.232,-56.08,,
1342.247,-56.28,,
1342.262,-56.33,,
1342.277,-56.27,,
1342.292,-56.23,,
1342.307,-56.36,,
1342.322,-56.4,,
1342.337,-56.36,,
1342.352,-56.38,,
1342.367,-56.41,,
1342.382,-56.43,,
1342.397,-56.46,,
1342.412,-56.2,,
1342.427,-56.26,,
1342.442,-56.54,,
1342.457,-56.44,,
1342.472,-56.19,,
1342.487,-56.45,,
1342.502,-56.76,,
1342.517,-56.54,,
1342.532,-56.45,,
1342.547,-56.77,,
1342.562,-56.72,,
1342.577,-56.41,,
1342.592,-56.5,,
1342.607,-56.71,,
1342.622,-56.66,,
1342.637,-56.49,,
1342.652,-56.75,,
1342.667,-56.68,,
1342.682,-56.53,,
1342.697,-56.63,,
1342.712,-56.52,,
1342.727,-56.52,,
1342.742,-56.51,,
1342.757,-56.64,,
1342.772,-56.52,,
1342.787,-56.56,,
1342.802,-56.59,,
1342.817,-56.55,,
1342.832,-56.57,,
1342.847,-56.7,,
1342.862,-56.73,,
1342.877,-56.7,,
1342.892,-56.84,,
1342.907,-56.88,,
1342.922,-56.76,,
1342.937,-56.73,,
1342.952,-56.73,,
1342.967,-56.6,,
1342.982,-56.63,,
1342.997,-56.61,,
1343.012,-56.7,,
1343.027,-56.58,,
1343.042,-56.63,,
1343.057,-56.66,,
1343.072,-57.0,,
1343.087,-57.02,,
1343.102,-57.15,,
1343.117,-56.97,,
1343.132,-57.07,,
1343.147,-57.22,,
1343.162,-57.07,,
1343.177,-57.01,,
1343.192,-57.13,,
1343.207,-57.11,,
1343.222,-56.94,,
1343.237,-56.95,,
1343.252,-56.99,,
1343.267,-57.03,,
1343.282,-56.78,,
1343.297,-56.82,,
1343.312,-56.95,,
1343.327,-56.91,,
1343.342,-56.76,,
1343.357,-56.77,,
1343.372,-56.89,,
1343.387,-56.78,,
1343.402,-56.63,,
1343.417,-56.73,,
1343.432,-56.91,,
1343.447,-56.72,,
1343.462,-56.62,,
1343.477,-56.81,,
1343.492,-56.87,,
1343.507,-56.6,,
1343.522,-56.98,,
1343.537,-56.94,,
1343.552,-56.47,,
1343.567,-56.59,,
1343.582,-56.88,,
1343.597,-56.72,,
1343.612,-56.42,,
1343.627,-56.67,,
1343.642,-56.85,,
1343.657,-56.54,,
1343.672,-56.47,,
1343.687,-56.71,,
1343.702,-56.56,,
1343.717,-56.53,,
1343.732,-56.6,,
1343.747,-56.76,,
1343.762,-56.48,,
1343.777,-56.57,,
1343.792,-56.63,,
1343.807,-56.56,,
1343.822,-56.43,,
1343.837,-56.43,,
1343.852,-56.52,,
1343.867,-56.33,,
1343.882,-56.28,,
1343.897,-56.37,,
1343.912,-56.41,,
1343.927,-56.32,,
1343.942,-56.61,,
1343.957,-56.66,,
1343.972,-56.34,,
1343.987,-56.33,,
1344.002,-56.75,,
1344.017,-56.56,,
1344.032,-56.35,,
1344.047,-56.48,,
1344.062,-56.75,,
1344.077,-56.36,,
1344.092,-56.37,,
1344.107,-56.37,,
1344.122,-56.44,,
1344.137,-56.36,,
1344.152,-56.33,,
1344.167,-56.51,,
1344.182,-56.45,,
1344.197,-56.33,,
1344.212,-56.52,,
1344.227,-56.47,,
1344.242,-56.45,,
1344.257,-56.46,,
1344.272,-56.56,,
1344.287,-56.51,,
1344.302,-56.4,,
1344.317,-56.53,,
1344.332,-56.65,,
1344.347,-56.67,,
1344.362,-56.7,,
1344.377,-56.99,,
1344.392,-56.61,,
1344.407,-56.78,,
1344.422,-57.1,,
1344.437,-56.92,,
1344.452,-56.73,,
1344.467,-56.84,,
1344.482,-57.06,,
1344.497,-56.8,,
1344.512,-56.84,,
1344.527,-56.6,,
1344.542,-56.71,,
1344.557,-56.81,,
1344.572,-56.76,,
1344.587,-56.7,,
1344.602,-56.75,,
1344.617,-56.83,,
1344.632,-56.81,,
1344.647,-56.88,,
1344.662,-56.83,,
1344.677,-56.87,,
1344.692,-56.79,,
1344.707,-56.87,,
1344.722,-56.76,,
1344.737,-56.81,,
1344.752,-56.69,,
1344.767,-56.76,,
1344.782,-56.7,,
1344.797,-57.11,,
1344.812,-56.69,,
1344.827,-56.61,,
1344.842,-56.87,,
1344.857,-56.92,,
1344.872,-56.75,,
1344.887,-56.84,,
1344.902,-57.19,,
1344.917,-56.86,,
1344.932,-56.77,,
1344.947,-56.62,,
1344.962,-56.77,,
1344.977,-56.79,,
1344.992,-56.94,,
1345.007,-56.71,,
1345.022,-56.72,,
1345.037,-56.75,,
1345.052,-56.77,,
1345.067,-56.6,,
1345.082,-56.81,,
1345.097,-56.78,,
1345.112,-56.55,,
1345.127,-56.6,,
1345.142,-56.72,,
1345.157,-56.62,,
1345.172,-56.49,,
1345.187,-56.59,,
1345.202,-56.65,,
1345.217,-56.81,,
1345.232,-56.71,,
1345.247,-56.53,,
1345.262,-56.77,,
1345.277,-56.81,,
1345.292,-56.52,,
1345.307,-56.63,,
1345.322,-56.9,,
1345.337,-56.71,,
1345.352,-56.32,,
1345.367,-56.49,,
1345.382,-56.51,,
1345.397,-56.63,,
1345.412,-56.42,,
1345.427,-56.31,,
1345.442,-56.47,,
1345.457,-56.44,,
1345.472,-56.49,,
1345.487,-56.5,,
1345.502,-56.65,,
1345.517,-56.58,,
1345.532,-56.55,,
1345.547,-56.61,,
1345.562,-56.66,,
1345.577,-56.67,,
1345.592,-56.63,,
1345.607,-56.65,,
1345.622,-56.57,,
1345.637,-56.6,,
1345.652,-56.53,,
1345.667,-56.37,,
1345.682,-56.5,,
1345.697,-56.64,,
1345.712,-56.52,,
1345.727,-56.43,,
1345.742,-56.53,,
1345.757,-56.6,,
1345.772,-56.5,,
1345.787,-56.58,,
1345.802,-56.35,,
1345.817,-56.61,,
1345.832,-56.69,,
1345.847,-56.7,,
1345.862,-56.68,,
1345.877,-56.7,,
1345.892,-56.87,,
1345.907,-56.79,,
1345.922,-56.67,,
1345.937,-56.65,,
1345.952,-56.97,,
1345.967,-56.72,,
1345.982,-56.56,,
1345.997,-56.62,,
1346.012,-56.84,,
1346.027,-56.64,,
1346.042,-56.6,,
1346.057,-56.65,,
1346.072,-56.91,,
1346.087,-56.6,,
1346.102,-56.56,,
1346.117,-57.04,,
1346.132,-56.96,,
1346.147,-56.62,,
1346.162,-56.93,,
1346.177,-57.08,,
1346.192,-56.68,,
1346.207,-57.04,,
1346.222,-56.93,,
1346.237,-56.62,,
1346.252,-56.65,,
1346.267,-56.87,,
1346.282,-56.6,,
1346.297,-56.48,,
1346.312,-56.68,,
1346.327,-56.76,,
1346.342,-56.5,,
1346.357,-56.58,,
1346.372,-56.82,,
1346.387,-56.72,,
1346.402,-56.37,,
1346.417,-56.59,,
1346.432,-56.9,,
1346.447,-56.62,,
1346.462,-56.54,,
1346.477,-56.77,,
1346.492,-56.44,,
1346.507,-56.27,,
1346.522,-56.46,,
1346.537,-56.77,,
1346.552,-56.41,,
1346.567,-56.31,,
1346.582,-56.66,,
1346.597,-56.5,,
1346.612,-56.27,,
1346.627,-56.6,,
1346.642,-56.82,,
1346.657,-56.43,,
1346.672,-56.48,,
1346.687,-56.8,,
1346.702,-56.72,,
1346.717,-56.41,,
1346.732,-56.47,,
1346.747,-56.91,,
1346.762,-56.63,,
1346.777,-56.5,,
1346.792,-56.86,,
1346.807,-56.93,,
1346.822,-56.5,,
1346.837,-56.6,,
1346.852,-56.94,,
1346.867,-56.64,,
1346.882,-56.48,,
1346.897,-56.59,,
1346.912,-56.3,,
1346.927,-56.3,,
1346.942,-56.72,,
1346.957,-56.51,,
1346.972,-56.3,,
1346.987,-56.57,,
1347.002,-56.75,,
1347.017,-56.39,,
1347.032,-56.28,,
1347.047,-56.56,,
1347.062,-56.75,,
1347.077,-56.27,,
1347.092,-56.37,,
1347.107,-56.86,,
1347.122,-56.48,,
1347.137,-56.11,,
1347.152,-56.41,,
1347.167,-56.52,,
1347.182,-56.21,,
1347.197,-56.22,,
1347.212,-56.34,,
1347.227,-56.19,,
1347.242,-56.15,,
1347.257,-56.37,,
1347.272,-56.49,,
1347.287,-56.21,,
1347.302,-56.28,,
1347.317,-56.42,,
1347.332,-56.04,,
1347.347,-56.09,,
1347.362,-56.52,,
1347.377,-56.29,,
1347.392,-56.02,,
1347.407,-56.24,,
1347.422,-56.51,,
1347.437,-56.13,,
1347.452,-55.97,,
1347.467,-56.29,,
1347.482,-56.14,,
1347.497,-56.19,,
1347.512,-56.33,,
1347.527,-56.33,,
1347.542,-56.06,,
1347.557,-56.06,,
1347.572,-56.3,,
1347.587,-56.2,,
1347.602,-56.11,,
1347.617,-56.35,,
1347.632,-56.48,,
1347.647,-56.14,,
1347.662,-56.47,,
1347.677,-56.63,,
1347.692,-56.27,,
1347.707,-56.2,,
1347.722,-56.53,,
1347.737,-56.49,,
1347.752,-56.16,,
1347.767,-56.26,,
1347.782,-56.49,,
1347.797,-56.13,,
1347.812,-55.96,,
1347.827,-56.36,,
1347.842,-56.41,,
1347.857,-56.01,,
1347.872,-56.28,,
1347.887,-56.38,,
1347.902,-56.08,,
1347.917,-56.31,,
1347.932,-56.61,,
1347.947,-56.27,,
1347.962,-56.27,,
1347.977,-56.47,,
1347.992,-56.55,,
1348.007,-56.22,,
1348.022,-56.38,,
1348.037,-56.79,,
1348.052,-56.59,,
1348.067,-56.3,,
1348.082,-56.59,,
1348.097,-56.4,,
1348.112,-56.07,,
1348.127,-56.37,,
1348.142,-56.52,,
1348.157,-56.28,,
1348.172,-56.32,,
1348.187,-56.5,,
1348.202,-56.55,,
1348.217,-56.3,,
1348.232,-56.49,,
1348.247,-56.63,,
1348.262,-56.51,,
1348.277,-56.23,,
1348.292,-56.57,,
1348.307,-56.66,,
1348.322,-56.58,,
1348.337,-56.97,,
1348.352,-56.83,,
1348.367,-56.34,,
1348.382,-56.58,,
1348.397,-56.83,,
1348.412,-56.66,,
1348.427,-56.36,,
1348.442,-56.57,,
1348.457,-56.87,,
1348.472,-56.46,,
1348.487,-56.43,,
1348.502,-56.89,,
1348.517,-56.88,,
1348.532,-56.55,,
1348.547,-56.77,,
1348.562,-57.2,,
1348.577,-56.99,,
1348.592,-57.04,,
1348.607,-57.13,,
1348.622,-57.0,,
1348.637,-56.8,,
1348.652,-57.16,,
1348.667,-56.73,,
1348.682,-56.51,,
1348.697,-56.91,,
1348.712,-57.09,,
1348.727,-56.64,,
1348.742,-56.78,,
1348.757,-57.11,,
1348.772,-56.97,,
1348.787,-56.62,,
1348.802,-57.03,,
1348.817,-57.32,,
1348.832,-56.83,,
1348.847,-56.77,,
1348.862,-56.98,,
1348.877,-56.51,,
1348.892,-56.53,,
1348.907,-56.98,,
1348.922,-56.79,,
1348.937,-56.46,,
1348.952,-56.71,,
1348.967,-56.72,,
1348.982,-56.53,,
1348.997,-56.35,,
1349.012,-56.66,,
1349.027,-56.61,,
1349.042,-56.28,,
1349.057,-56.4,,
1349.072,-56.64,,
1349.087,-56.4,,
1349.102,-56.61,,
1349.117,-56.9,,
1349.132,-56.83,,
1349.147,-56.6,,
1349.162,-57.04,,
1349.177,-56.93,,
1349.193,-56.62,,
1349.207,-56.89,,
1349.222,-57.15,,
1349.237,-56.73,,
1349.252,-56.69,,
1349.267,-56.98,,
1349.282,-57.07,,
1349.297,-56.65,,
1349.313,-56.77,,
1349.328,-56.96,,
1349.343,-56.51,,
1349.357,-56.53,,
1349.372,-56.92,,
1349.387,-56.83,,
1349.402,-56.54,,
1349.417,-56.69,,
1349.432,-57.01,,
1349.448,-56.88,,
1349.463,-56.82,,
1349.478,-57.14,,
1349.492,-57.04,,
1349.507,-56.62,,
1349.522,-56.73,,
1349.537,-57.02,,
1349.552,-56.84,,
1349.568,-56.52,,
1349.583,-56.84,,
1349.598,-56.53,,
1349.613,-56.33,,
1349.628,-56.66,,
1349.642,-56.77,,
1349.657,-56.34,,
1349.672,-56.44,,
1349.688,-56.85,,
1349.703,-56.44,,
1349.718,-56.42,,
1349.733,-56.66,,
1349.748,-56.61,,
1349.763,-56.31,,
1349.777,-56.61,,
1349.792,-56.84,,
1349.807,-56.51,,
1349.823,-56.37,,
1349.838,-56.75,,
1349.853,-56.62,,
1349.868,-56.45,,
1349.883,-56.83,,
1349.898,-57.04,,
1349.913,-56.69,,
1349.927,-56.95,,
1349.943,-57.02,,
1349.958,-56.61,,
1349.973,-56.6,,
1349.988,-56.94,,
1350.003,-56.86,,
1350.018,-56.59,,
1350.033,-56.6,,
1350.048,-57.1,,
1350.063,-56.85,,
1350.078,-56.68,,
1350.093,-57.01,,
1350.108,-57.06,,
1350.123,-56.83,,
1350.138,-56.54,,
1350.153,-56.95,,
1350.168,-56.61,,
1350.183,-56.72,,
1350.198,-56.96,,
1350.213,-56.68,,
1350.228,-56.5,,
1350.243,-56.86,,
1350.258,-56.82,,
1350.273,-56.47,,
1350.288,-56.62,,
1350.303,-56.85,,
1350.318,-56.67,,
1350.333,-56.4,,
1350.348,-56.81,,
1350.363,-57.07,,
1350.378,-56.71,,
1350.393,-56.88,,
1350.408,-56.93,,
1350.423,-56.83,,
1350.438,-56.84,,
1350.453,-56.8,,
1350.468,-56.54,,
1350.483,-56.29,,
1350.498,-56.68,,
1350.513,-56.79,,
1350.528,-56.49,,
1350.543,-56.49,,
1350.558,-56.69,,
1350.573,-56.58,,
1350.588,-56.38,,
1350.603,-56.55,,
1350.618,-56.74,,
1350.633,-56.51,,
1350.648,-56.53,,
1350.663,-56.58,,
1350.678,-56.65,,
1350.693,-56.58,,
1350.708,-56.75,,
1350.723,-56.51,,
1350.738,-56.48,,
1350.753,-56.69,,
1350.768,-56.67,,
1350.783,-56.36,,
1350.798,-56.38,,
1350.813,-56.63,,
1350.828,-56.45,,
1350.843,-56.23,,
1350.858,-56.48,,
1350.873,-56.57,,
1350.888,-56.43,,
1350.903,-56.34,,
1350.918,-56.66,,
1350.933,-56.43,,
1350.948,-56.51,,
1350.963,-56.94,,
1350.978,-56.82,,
1350.993,-56.59,,
1351.008,-56.93,,
1351.023,-56.92,,
1351.038,-56.94,,
1351.053,-56.72,,
1351.068,-56.82,,
1351.083,-56.69,,
1351.098,-56.49,,
1351.113,-56.68,,
1351.128,-56.63,,
1351.143,-56.58,,
1351.158,-56.43,,
1351.173,-56.76,,
1351.188,-56.59,,
1351.203,-56.33,,
1351.218,-56.56,,
1351.233,-56.67,,
1351.248,-56.54,,
1351.263,-56.78,,
1351.278,-56.87,,
1351.293,-56.64,,
1351.308,-56.74,,
1351.323,-56.96,,
1351.338,-56.9,,
1351.353,-56.58,,
1351.368,-56.58,,
1351.383,-56.76,,
1351.398,-56.35,,
1351.413,-56.52,,
1351.428,-56.87,,
1351.443,-56.54,,
1351.458,-56.46,,
1351.473,-56.79,,
1351.488,-57.12,,
1351.503,-56.61,,
1351.518,-56.66,,
1351.533,-56.81,,
1351.548,-56.7,,
1351.563,-56.5,,
1351.578,-56.83,,
1351.593,-56.82,,
1351.608,-56.54,,
1351.623,-56.72,,
1351.638,-56.94,,
1351.653,-56.49,,
1351.668,-56.5,,
1351.683,-56.83,,
1351.698,-56.48,,
1351.713,-56.59,,
1351.728,-56.8,,
1351.743,-56.61,,
1351.758,-56.34,,
1351.773,-56.7,,
1351.788,-56.8,,
1351.803,-56.56,,
1351.818,-56.51,,
1351.833,-56.96,,
1351.848,-56.92,,
1351.863,-56.56,,
1351.878,-56.78,,
1351.893,-56.93,,
1351.908,-57.0,,
1351.923,-56.99,,
1351.938,-56.92,,
1351.953,-56.7,,
1351.968,-56.48,,
1351.983,-56.82,,
1351.998,-56.78,,
1352.013,-56.45,,
1352.028,-56.63,,
1352.043,-56.8,,
1352.058,-56.6,,
1352.073,-56.46,,
1352.088,-56.51,,
1352.103,-56.5,,
1352.118,-56.42,,
1352.133,-56.5,,
1352.148,-56.53,,
1352.163,-56.58,,
1352.178,-56.54,,
1352.193,-56.57,,
1352.208,-56.59,,
1352.223,-56.57,,
1352.238,-56.66,,
1352.253,-56.61,,
1352.268,-56.2,,
1352.283,-56.43,,
1352.298,-56.43,,
1352.313,-56.22,,
1352.328,-56.22,,
1352.343,-56.36,,
1352.358,-56.3,,
1352.373,-56.23,,
1352.388,-56.42,,
1352.403,-56.57,,
1352.418,-56.37,,
1352.433,-56.3,,
1352.448,-56.46,,
1352.463,-56.6,,
1352.478,-56.79,,
1352.493,-56.53,,
1352.508,-56.63,,
1352.523,-56.62,,
1352.538,-56.79,,
1352.553,-56.68,,
1352.568,-56.6,,
1352.583,-56.5,,
1352.598,-56.59,,
1352.613,-56.59,,
1352.628,-56.46,,
1352.643,-56.58,,
1352.658,-56.72,,
1352.673,-56.64,,
1352.688,-56.6,,
1352.703,-56.65,,
1352.718,-56.53,,
1352.733,-56.67,,
1352.748,-56.73,,
1352.763,-56.72,,
1352.778,-56.46,,
1352.793,-56.68,,
1352.808,-56.7,,
1352.823,-56.61,,
1352.838,-56.54,,
1352.853,-56.64,,
1352.868,-56.65,,
1352.883,-56.5,,
1352.898,-56.63,,
1352.913,-56.39,,
1352.928,-56.26,,
1352.943,-56.44,,
1352.958,-56.56,,
1352.973,-56.48,,
1352.988,-56.37,,
1353.003,-56.55,,
1353.018,-56.59,,
1353.033,-56.43,,
1353.048,-56.58,,
1353.063,-56.75,,
1353.078,-56.6,,
1353.093,-56.7,,
1353.108,-57.18,,
1353.123,-56.94,,
1353.138,-57.03,,
1353.153,-57.09,,
1353.168,-57.07,,
1353.183,-56.94,,
1353.198,-57.04,,
1353.213,-57.1,,
1353.228,-56.99,,
1353.243,-56.8,,
1353.258,-57.02,,
1353.273,-57.1,,
1353.288,-56.75,,
1353.303,-56.92,,
1353.318,-57.32,,
1353.333,-56.94,,
1353.348,-56.83,,
1353.363,-57.07,,
1353.378,-56.99,,
1353.393,-56.78,,
1353.408,-56.98,,
1353.423,-56.97,,
1353.438,-56.79,,
1353.453,-56.85,,
1353.468,-56.93,,
1353.483,-56.5,,
1353.498,-56.45,,
1353.513,-56.68,,
1353.528,-56.71,,
1353.543,-56.44,,
1353.558,-56.52,,
1353.573,-56.85,,
1353.588,-56.61,,
1353.603,-56.67,,
1353.618,-56.88,,
1353.633,-56.76,,
1353.648,-56.48,,
1353.663,-56.6,,
1353.678,-56.73,,
1353.693,-56.41,,
1353.708,-56.66,,
1353.723,-56.88,,
1353.738,-56.49,,
1353.753,-56.31,,
1353.768,-56.42,,
1353.783,-56.38,,
1353.798,-56.24,,
1353.813,-56.48,,
1353.828,-56.47,,
1353.843,-56.28,,
1353.858,-56.41,,
1353.873,-56.51,,
1353.888,-56.5,,
1353.903,-56.31,,
1353.918,-56.72,,
1353.933,-56.46,,
1353.948,-56.48,,
1353.963,-56.51,,
1353.978,-56.57,,
1353.993,-56.45,,
1354.008,-56.51,,
1354.023,-56.52,,
1354.038,-56.49,,
1354.053,-56.5,,
1354.068,-56.43,,
1354.083,-56.39,,
1354.098,-56.41,,
1354.113,-56.4,,
1354.128,-56.5,,
1354.143,-56.37,,
1354.158,-56.48,,
1354.173,-56.35,,
1354.188,-56.36,,
1354.203,-56.4,,
1354.218,-56.4,,
1354.233,-56.42,,
1354.248,-56.49,,
1354.263,-56.48,,
1354.278,-56.41,,
1354.293,-56.52,,
1354.308,-56.64,,
1354.323,-56.26,,
1354.338,-56.34,,
1354.353,-56.65,,
1354.368,-56.64,,
1354.383,-56.55,,
1354.398,-56.53,,
1354.413,-56.52,,
1354.428,-56.42,,
1354.443,-56.42,,
1354.458,-56.37,,
1354.473,-56.43,,
1354.488,-56.35,,
1354.503,-56.37,,
1354.518,-56.28,,
1354.533,-56.11,,
1354.548,-56.25,,
1354.563,-56.5,,
1354.578,-56.2,,
1354.593,-56.29,,
1354.608,-56.33,,
1354.623,-56.37,,
1354.638,-56.31,,
1354.653,-56.28,,
1354.668,-56.37,,
1354.683,-56.33,,
1354.698,-56.63,,
1354.713,-56.66,,
1354.728,-56.29,,
1354.743,-56.29,,
1354.758,-56.69,,
1354.773,-56.71,,
1354.788,-56.73,,
1354.803,-56.79,,
1354.818,-56.8,,
1354.833,-56.74,,
1354.848,-56.79,,
1354.863,-56.72,,
1354.878,-56.48,,
1354.893,-56.69,,
1354.908,-56.91,,
1354.923,-56.48,,
1354.938,-56.57,,
1354.953,-56.57,,
1354.968,-56.47,,
1354.983,-56.3,,
1354.998,-56.45,,
1355.013,-56.51,,
1355.028,-56.35,,
1355.043,-56.36,,
1355.058,-56.34,,
1355.073,-56.08,,
1355.088,-56.11,,
1355.103,-56.49,,
1355.118,-56.29,,
1355.133,-56.06,,
1355.148,-55.96,,
1355.163,-55.99,,
1355.178,-56.05,,
1355.193,-56.12,,
1355.208,-56.02,,
1355.223,-56.07,,
1355.238,-56.02,,
1355.253,-56.25,,
1355.268,-55.95,,
1355.283,-55.94,,
1355.298,-55.97,,
1355.313,-56.06,,
1355.328,-55.99,,
1355.343,-56.03,,
1355.358,-55.9,,
1355.373,-55.94,,
1355.388,-55.97,,
1355.403,-55.94,,
1355.418,-55.93,,
1355.433,-56.14,,
1355.448,-56.21,,
1355.463,-56.46,,
1355.478,-56.23,,
1355.493,-56.19,,
1355.508,-56.34,,
1355.523,-56.47,,
1355.538,-56.47,,
1355.553,-56.47,,
1355.568,-56.41,,
1355.583,-56.49,,
1355.598,-56.47,,
1355.613,-56.48,,
1355.628,-56.24,,
1355.643,-56.2,,
1355.658,-56.49,,
1355.673,-56.41,,
1355.688,-56.3,,
1355.703,-56.14,,
1355.718,-56.15,,
1355.733,-56.3,,
1355.748,-56.28,,
1355.763,-56.17,,
1355.778,-56.29,,
1355.793,-56.3,,
1355.808,-56.18,,
1355.823,-56.01,,
1355.838,-55.93,,
1355.853,-56.09,,
1355.868,-56.14,,
1355.883,-56.19,,
1355.898,-56.04,,
1355.913,-55.96,,
1355.928,-56.25,,
1355.943,-56.27,,
1355.958,-56.01,,
1355.973,-55.94,,
1355.988,-56.32,,
1356.003,-56.33,,
1356.018,-56.31,,
1356.033,-56.29,,
1356.048,-56.27,,
1356.063,-56.24,,
1356.078,-56.54,,
1356.093,-56.57,,
1356.108,-56.26,,
1356.123,-56.38,,
1356.138,-56.47,,
1356.153,-56.5,,
1356.168,-56.22,,
1356.183,-56.2,,
1356.198,-56.19,,
1356.213,-56.25,,
1356.228,-56.18,,
1356.243,-56.14,,
1356.258,-55.87,,
1356.273,-56.08,,
1356.288,-56.17,,
1356.303,-56.1,,
1356.318,-55.89,,
1356.333,-56.08,,
1356.348,-56.25,,
1356.363,-56.12,,
1356.378,-56.02,,
1356.393,-55.89,,
1356.408,-56.06,,
1356.423,-56.1,,
1356.438,-55.89,,
1356.453,-55.86,,
1356.468,-55.79,,
1356.483,-55.81,,
1356.498,-55.79,,
1356.513,-55.7,,
1356.528,-55.65,,
1356.543,-55.69,,
1356.558,-55.8,,
1356.573,-55.94,,
1356.588,-55.69,,
1356.603,-55.81,,
1356.618,-55.96,,
1356.633,-55.98,,
1356.648,-56.01,,
1356.663,-56.02,,
1356.678,-56.05,,
1356.693,-56.12,,
1356.708,-56.12,,
1356.723,-56.14,,
1356.738,-56.15,,
1356.753,-56.22,,
1356.768,-56.51,,
1356.783,-56.18,,
1356.798,-56.11,,
1356.813,-56.26,,
1356.828,-56.36,,
1356.843,-56.38,,
1356.858,-56.38,,
1356.873,-56.28,,
1356.888,-56.3,,
1356.903,-56.35,,
1356.918,-56.31,,
1356.933,-55.95,,
1356.948,-56.0,,
1356.963,-56.33,,
1356.978,-56.35,,
1356.993,-56.01,,
1357.008,-56.08,,
1357.023,-55.99,,
1357.038,-55.82,,
1357.053,-55.89,,
1357.068,-56.04,,
1357.083,-55.89,,
1357.098,-55.84,,
1357.113,-55.88,,
1357.128,-55.74,,
1357.143,-55.6,,
1357.158,-55.75,,
1357.173,-56.09,,
1357.188,-56.04,,
1357.203,-56.05,,
1357.219,-56.08,,
1357.233,-56.2,,
1357.248,-56.23,,
1357.263,-56.32,,
1357.278,-56.32,,
1357.293,-56.32,,
1357.308,-56.38,,
1357.323,-56.62,,
1357.339,-56.34,,
1357.354,-56.17,,
1357.369,-56.37,,
1357.383,-56.45,,
1357.398,-56.51,,
1357.413,-56.64,,
1357.428,-56.7,,
1357.443,-56.52,,
1357.458,-56.61,,
1357.474,-56.53,,
1357.489,-56.32,,
1357.504,-56.36,,
1357.518,-56.83,,
1357.533,-56.78,,
1357.548,-56.55,,
1357.563,-56.63,,
1357.578,-56.58,,
1357.594,-56.55,,
1357.609,-56.53,,
1357.624,-56.52,,
1357.639,-56.49,,
1357.654,-56.56,,
1357.668,-56.82,,
1357.683,-56.55,,
1357.698,-56.28,,
1357.714,-56.57,,
1357.729,-56.61,,
1357.744,-56.31,,
1357.759,-56.3,,
1357.774,-56.15,,
1357.789,-56.12,,
1357.803,-56.28,,
1357.818,-56.56,,
1357.833,-56.24,,
1357.849,-56.32,,
1357.864,-56.62,,
1357.879,-56.45,,
1357.894,-56.31,,
1357.909,-56.39,,
1357.924,-56.62,,
1357.939,-56.63,,
1357.953,-56.6,,
1357.969,-56.6,,
1357.984,-56.38,,
1357.999,-56.44,,
1358.014,-56.75,,
1358.029,-56.57,,
1358.044,-56.46,,
1358.059,-56.79,,
1358.074,-56.86,,
1358.089,-56.65,,
1358.104,-56.61,,
1358.119,-56.86,,
1358.134,-56.66,,
1358.149,-56.97,,
1358.164,-57.24,,
1358.179,-56.69,,
1358.194,-56.59,,
1358.209,-56.92,,
1358.224,-57.04,,
1358.239,-56.61,,
1358.254,-56.51,,
1358.269,-56.82,,
1358.284,-56.59,,
1358.299,-56.51,,
1358.314,-56.77,,
1358.329,-56.46,,
1358.344,-56.5,,
1358.359,-56.91,,
1358.374,-56.85,,
1358.389,-56.48,,
1358.404,-56.61,,
1358.419,-56.87,,
1358.434,-56.55,,
1358.449,-56.72,,
1358.464,-56.88,,
1358.479,-56.7,,
1358.494,-56.69,,
1358.509,-57.07,,
1358.524,-56.75,,
1358.539,-56.45,,
1358.554,-56.8,,
1358.569,-56.98,,
1358.584,-56.53,,
1358.599,-56.84,,
1358.614,-56.97,,
1358.629,-56.71,,
1358.644,-56.58,,
1358.659,-56.88,,
1358.674,-56.54,,
1358.689,-56.44,,
1358.704,-56.83,,
1358.719,-56.77,,
1358.734,-56.45,,
1358.749,-56.79,,
1358.764,-56.88,,
1358.779,-56.65,,
1358.794,-56.82,,
1358.809,-56.86,,
1358.824,-56.4,,
1358.839,-56.46,,
1358.854,-56.83,,
1358.869,-56.52,,
1358.884,-56.38,,
1358.899,-56.48,,
1358.914,-56.43,,
1358.929,-56.15,,
1358.944,-56.39,,
1358.959,-56.55,,
1358.974,-56.22,,
1358.989,-56.38,,
1359.004,-56.77,,
1359.019,-56.49,,
1359.034,-56.31,,
1359.049,-56.6,,
1359.064,-56.4,,
1359.079,-56.26,,
1359.094,-56.45,,
1359.109,-56.47,,
1359.124,-56.25,,
1359.139,-56.51,,
1359.154,-56.63,,
1359.169,-56.23,,
1359.184,-56.23,,
1359.199,-56.62,,
1359.214,-56.53,,
1359.229,-56.42,,
1359.244,-56.66,,
1359.259,-56.68,,
1359.274,-56.39,,
1359.289,-56.71,,
1359.304,-56.76,,
1359.319,-56.43,,
1359.334,-56.45,,
1359.349,-56.79,,
1359.364,-56.52,,
1359.379,-56.59,,
1359.394,-56.8,,
1359.409,-56.58,,
1359.424,-56.31,,
1359.439,-56.58,,
1359.454,-56.49,,
1359.469,-56.17,,
1359.484,-56.4,,
1359.499,-56.74,,
1359.514,-56.43,,
1359.529,-56.29,,
1359.544,-56.53,,
1359.559,-56.3,,
1359.574,-56.19,,
1359.589,-56.6,,
1359.604,-56.25,,
1359.619,-56.02,,
1359.634,-56.23,,
1359.649,-56.38,,
1359.664,-56.03,,
1359.679,-56.04,,
1359.694,-56.1,,
1359.709,-55.86,,
1359.724,-55.88,,
1359.739,-56.07,,
1359.754,-55.71,,
1359.769,-55.64,,
1359.784,-56.0,,
1359.799,-56.03,,
1359.814,-55.75,,
1359.829,-55.84,,
1359.844,-56.2,,
1359.859,-55.82,,
1359.874,-55.92,,
1359.889,-56.22,,
1359.904,-56.01,,
1359.919,-56.11,,
1359.934,-56.46,,
1359.949,-56.29,,
1359.964,-55.97,,
1359.979,-56.13,,
1359.994,-56.47,,
1360.009,-56.02,,
1360.024,-56.07,,
1360.039,-56.41,,
1360.054,-56.12,,
1360.069,-56.19,,
1360.084,-56.38,,
1360.099,-56.23,,
1360.114,-56.11,,
1360.129,-56.21,,
1360.144,-56.43,,
1360.159,-56.16,,
1360.174,-56.38,,
1360.189,-56.72,,
1360.204,-56.27,,
1360.219,-56.21,,
1360.234,-56.41,,
1360.249,-56.19,,
1360.264,-56.12,,
1360.279,-56.19,,
1360.294,-56.22,,
1360.309,-56.05,,
1360.324,-56.17,,
1360.339,-56.48,,
1360.354,-56.16,,
1360.369,-56.13,,
1360.384,-56.21,,
1360.399,-56.07,,
1360.414,-56.05,,
1360.429,-56.29,,
1360.444,-56.37,,
1360.459,-56.17,,
1360.474,-56.56,,
1360.489,-56.59,,
1360.504,-56.31,,
1360.519,-56.21,,
1360.534,-56.54,,
1360.549,-56.55,,
1360.564,-56.55,,
1360.579,-56.71,,
1360.594,-56.61,,
1360.609,-56.51,,
1360.624,-56.93,,
1360.639,-56.91,,
1360.654,-56.64,,
1360.669,-56.81,,
1360.684,-57.17,,
1360.699,-57.04,,
1360.714,-57.09,,
1360.729,-57.27,,
1360.744,-57.28,,
1360.759,-57.33,,
1360.774,-57.94,,
1360.789,-57.63,,
1360.804,-57.15,,
1360.819,-57.39,,
1360.834,-57.79,,
1360.849,-57.21,,
1360.864,-57.3,,
1360.879,-57.51,,
1360.894,-56.88,,
1360.909,-57.04,,
1360.924,-57.46,,
1360.939,-57.18,,
1360.954,-56.77,,
1360.969,-57.02,,
1360.984,-57.42,,
1360.999,-56.93,,
1361.014,-57.02,,
1361.029,-57.28,,
1361.044,-56.83,,
1361.059,-56.95,,
1361.074,-57.42,,
1361.089,-57.29,,
1361.104,-57.04,,
1361.119,-57.19,,
1361.134,-57.62,,
1361.149,-57.2,,
1361.164,-57.36,,
1361.179,-57.27,,
1361.194,-56.8,,
1361.209,-56.98,,
1361.224,-57.33,,
1361.239,-56.96,,
1361.254,-56.78,,
1361.269,-56.89,,
1361.284,-57.24,,
1361.299,-57.0,,
1361.314,-57.27,,
1361.329,-57.27,,
1361.344,-56.74,,
1361.359,-56.86,,
1361.374,-57.31,,
1361.389,-57.08,,
1361.404,-56.75,,
1361.419,-56.94,,
1361.434,-56.78,,
1361.449,-56.47,,
1361.464,-56.73,,
1361.479,-56.56,,
1361.494,-56.31,,
1361.509,-56.32,,
1361.524,-56.72,,
1361.539,-56.44,,
1361.554,-56.21,,
1361.569,-56.55,,
1361.584,-56.33,,
1361.599,-56.18,,
1361.614,-56.48,,
1361.629,-56.18,,
1361.644,-55.96,,
1361.659,-56.23,,
1361.674,-56.4,,
1361.689,-56.03,,
1361.704,-56.35,,
1361.719,-56.5,,
1361.734,-56.2,,
1361.749,-56.04,,
1361.764,-56.38,,
1361.779,-56.02,,
1361.794,-55.92,,
1361.809,-56.2,,
1361.824,-56.3,,
1361.839,-56.04,,
1361.854,-56.38,,
1361.869,-56.4,,
1361.884,-56.05,,
1361.899,-56.36,,
1361.914,-56.55,,
1361.929,-56.16,,
1361.944,-56.08,,
1361.959,-56.53,,
1361.974,-56.36,,
1361.989,-56.27,,
1362.004,-56.41,,
1362.019,-56.42,,
1362.034,-56.24,,
1362.049,-56.46,,
1362.064,-56.54,,
1362.079,-56.14,,
1362.094,-56.11,,
1362.109,-56.15,,
1362.124,-56.02,,
1362.139,-55.95,,
1362.154,-56.02,,
1362.169,-55.86,,
1362.184,-55.78,,
1362.199,-56.1,,
1362.214,-56.07,,
1362.229,-55.82,,
1362.244,-55.99,,
1362.259,-55.94,,
1362.274,-56.01,,
1362.289,-56.1,,
1362.304,-56.14,,
1362.319,-55.81,,
1362.334,-55.87,,
1362.349,-56.17,,
1362.364,-56.09,,
1362.379,-56.01,,
1362.394,-55.86,,
1362.409,-55.86,,
1362.424,-56.03,,
1362.439,-56.33,,
1362.454,-56.31,,
1362.469,-56.13,,
1362.484,-56.2,,
1362.499,-56.47,,
1362.514,-56.57,,
1362.529,-56.57,,
1362.544,-56.54,,
1362.559,-56.65,,
1362.574,-56.6,,
1362.589,-56.9,,
1362.604,-56.81,,
1362.619,-56.48,,
1362.634,-56.78,,
1362.649,-56.99,,
1362.664,-56.96,,
1362.679,-56.97,,
1362.694,-56.92,,
1362.709,-56.54,,
1362.724,-56.64,,
1362.739,-56.86,,
1362.754,-56.83,,
1362.769,-56.63,,
1362.784,-56.95,,
1362.799,-56.78,,
1362.814,-56.9,,
1362.829,-56.91,,
1362.844,-56.89,,
1362.859,-56.68,,
1362.874,-56.91,,
1362.889,-57.05,,
1362.904,-56.88,,
1362.919,-56.88,,
1362.934,-56.76,,
1362.949,-56.82,,
1362.964,-56.85,,
1362.979,-56.95,,
1362.994,-56.79,,
1363.009,-56.64,,
1363.024,-56.89,,
1363.039,-56.8,,
1363.054,-56.58,,
1363.069,-56.59,,
1363.084,-56.51,,
1363.099,-56.58,,
1363.114,-56.76,,
1363.129,-56.9,,
1363.144,-56.66,,
1363.159,-56.71,,
1363.174,-56.9,,
1363.189,-56.84,,
1363.204,-56.83,,
1363.219,-56.74,,
1363.234,-56.69,,
1363.249,-56.72,,
1363.264,-56.91,,
1363.279,-56.83,,
1363.294,-56.64,,
1363.309,-56.82,,
1363.324,-56.83,,
1363.339,-56.98,,
1363.354,-56.85,,
1363.369,-56.79,,
1363.384,-56.65,,
1363.399,-57.03,,
1363.414,-57.18,,
1363.429,-56.92,,
1363.444,-56.81,,
1363.459,-57.1,,
1363.474,-57.12,,
1363.489,-57.33,,
1363.504,-57.06,,
1363.519,-56.86,,
1363.534,-56.66,,
1363.549,-56.93,,
1363.564,-56.91,,
1363.579,-56.63,,
1363.594,-56.67,,
1363.609,-56.57,,
1363.624,-56.78,,
1363.639,-56.79,,
1363.654,-56.61,,
1363.669,-56.56,,
1363.684,-56.44,,
1363.699,-56.63,,
1363.714,-56.68,,
1363.729,-56.48,,
1363.744,-56.33,,
1363.759,-56.34,,
1363.774,-56.51,,
1363.789,-56.32,,
1363.804,-56.38,,
1363.819,-56.24,,
1363.834,-56.25,,
1363.849,-56.26,,
1363.864,-56.16,,
1363.879,-56.15,,
1363.894,-55.92,,
1363.909,-56.0,,
1363.924,-55.99,,
1363.939,-56.1,,
1363.954,-56.19,,
1363.969,-55.93,,
1363.984,-56.13,,
1363.999,-56.21,,
1364.014,-56.36,,
1364.029,-56.33,,
1364.044,-56.28,,
1364.059,-56.32,,
1364.074,-56.47,,
1364.089,-56.67,,
1364.104,-56.52,,
1364.119,-56.34,,
1364.134,-56.59,,
1364.149,-56.53,,
1364.164,-56.61,,
1364.179,-56.46,,
1364.194,-56.5,,
1364.209,-56.32,,
1364.224,-56.58,,
1364.239,-56.66,,
1364.254,-56.42,,
1364.269,-56.49,,
1364.284,-56.46,,
1364.299,-56.58,,
1364.314,-56.52,,
1364.329,-56.56,,
1364.344,-56.36,,
1364.359,-56.28,,
1364.374,-56.72,,
1364.389,-56.67,,
1364.404,-56.23,,
1364.419,-56.29,,
1364.434,-56.34,,
1364.449,-56.37,,
1364.464,-56.34,,
1364.479,-56.4,,
1364.494,-55.99,,
1364.509,-56.08,,
1364.524,-56.46,,
1364.539,-56.31,,
1364.554,-56.29,,
1364.569,-56.3,,
1364.584,-56.37,,
1364.599,-56.24,,
1364.614,-56.54,,
1364.629,-56.47,,
1364.644,-56.22,,
1364.659,-56.47,,
1364.674,-56.44,,
1364.689,-56.48,,
1364.704,-56.51,,
1364.719,-56.45,,
1364.734,-56.39,,
1364.749,-56.52,,
1364.764,-56.71,,
1364.779,-56.44,,
1364.794,-56.4,,
1364.809,-56.33,,
1364.824,-56.36,,
1364.839,-56.29,,
1364.854,-56.34,,
1364.869,-56.36,,
1364.884,-56.14,,
1364.899,-56.51,,
1364.914,-56.34,,
1364.929,-56.41,,
1364.944,-56.56,,
1364.959,-56.51,,
1364.974,-56.55,,
1364.989,-56.6,,
1365.004,-56.54,,
1365.019,-56.25,,
1365.034,-56.26,,
1365.049,-56.15,,
1365.064,-56.27,,
1365.079,-56.2,,
1365.094,-56.12,,
1365.109,-56.15,,
1365.124,-56.26,,
1365.139,-56.15,,
1365.154,-56.17,,
1365.169,-56.31,,
1365.184,-56.31,,
1365.199,-56.27,,
1365.214,-56.35,,
1365.229,-56.36,,
1365.245,-56.31,,
1365.259,-56.41,,
1365.274,-56.28,,
1365.289,-56.28,,
1365.304,-56.36,,
1365.319,-56.29,,
1365.334,-56.24,,
1365.349,-56.19,,
1365.365,-56.34,,
1365.38,-56.11,,
1365.395,-56.13,,
1365.409,-56.51,,
1365.424,-56.36,,
1365.439,-56.33,,
1365.454,-56.49,,
1365.469,-56.48,,
1365.484,-56.34,,
1365.5,-56.47,,
1365.515,-56.42,,
1365.53,-56.03,,
1365.544,-56.32,,
1365.559,-56.32,,
1365.574,-56.24,,
1365.589,-56.26,,
1365.604,-56.28,,
1365.62,-56.24,,
1365.635,-56.16,,
1365.65,-56.44,,
1365.665,-56.18,,
1365.68,-56.22,,
1365.694,-56.17,,
1365.709,-56.13,,
1365.724,-56.07,,
1365.74,-56.09,,
1365.755,-56.13,,
1365.77,-55.92,,
1365.785,-56.14,,
1365.8,-56.25,,
1365.815,-56.29,,
1365.83,-56.34,,
1365.844,-56.45,,
1365.859,-56.43,,
1365.875,-56.42,,
1365.89,-56.75,,
1365.905,-56.37,,
1365.92,-56.49,,
1365.935,-56.49,,
1365.95,-56.45,,
1365.965,-56.36,,
1365.979,-56.65,,
1365.995,-56.45,,
1366.01,-56.27,,
1366.025,-56.51,,
1366.04,-56.53,,
1366.055,-56.65,,
1366.07,-56.66,,
1366.085,-56.56,,
1366.1,-56.36,,
1366.115,-56.49,,
1366.13,-56.62,,
1366.145,-56.51,,
1366.16,-56.58,,
1366.175,-56.42,,
1366.19,-56.51,,
1366.205,-56.58,,
1366.22,-56.69,,
1366.235,-56.55,,
1366.25,-56.33,,
1366.265,-56.4,,
1366.28,-56.57,,
1366.295,-56.65,,
1366.31,-56.51,,
1366.325,-56.39,,
1366.34,-56.24,,
1366.355,-56.39,,
1366.37,-56.54,,
1366.385,-56.51,,
1366.4,-56.51,,
1366.415,-56.23,,
1366.43,-56.41,,
1366.445,-56.52,,
1366.46,-56.64,,
1366.475,-56.51,,
1366.49,-56.31,,
1366.505,-56.31,,
1366.52,-56.53,,
1366.535,-56.68,,
1366.55,-56.43,,
1366.565,-56.16,,
1366.58,-56.13,,
1366.595,-56.06,,
1366.61,-56.18,,
1366.625,-56.2,,
1366.64,-56.22,,
1366.655,-55.91,,
1366.67,-56.08,,
1366.685,-56.29,,
1366.7,-56.3,,
1366.715,-56.32,,
1366.73,-56.27,,
1366.745,-56.34,,
1366.76,-56.34,,
1366.775,-56.59,,
1366.79,-56.54,,
1366.805,-56.21,,
1366.82,-56.16,,
1366.835,-56.13,,
1366.85,-56.13,,
1366.865,-56.1,,
1366.88,-56.16,,
1366.895,-55.89,,
1366.91,-56.1,,
1366.925,-56.28,,
1366.94,-56.33,,
1366.955,-56.37,,
1366.97,-56.41,,
1366.985,-56.14,,
1367.0,-56.31,,
1367.015,-56.45,,
1367.03,-56.46,,
1367.045,-56.27,,
1367.06,-56.1,,
1367.075,-56.08,,
1367.09,-56.14,,
1367.105,-56.28,,
1367.12,-56.23,,
1367.135,-56.19,,
1367.15,-56.25,,
1367.165,-56.22,,
1367.18,-56.39,,
1367.195,-56.25,,
1367.21,-56.12,,
1367.225,-56.12,,
1367.24,-56.22,,
1367.255,-56.36,,
1367.27,-56.4,,
1367.285,-56.31,,
1367.3,-56.15,,
1367.315,-56.29,,
1367.33,-56.45,,
1367.345,-56.59,,
1367.36,-56.52,,
1367.375,-56.42,,
1367.39,-56.48,,
1367.405,-56.35,,
1367.42,-56.71,,
1367.435,-56.53,,
1367.45,-56.43,,
1367.465,-56.4,,
1367.48,-56.39,,
1367.495,-56.49,,
1367.51,-56.6,,
1367.525,-56.41,,
1367.54,-56.13,,
1367.555,-56.31,,
1367.57,-56.76,,
1367.585,-56.61,,
1367.6,-56.68,,
1367.615,-56.83,,
1367.63,-56.76,,
1367.645,-56.65,,
1367.66,-57.05,,
1367.675,-56.87,,
1367.69,-56.45,,
1367.705,-56.57,,
1367.72,-56.5,,
1367.735,-56.44,,
1367.75,-56.71,,
1367.765,-56.72,,
1367.78,-56.35,,
1367.795,-56.36,,
1367.81,-56.63,,
1367.825,-56.61,,
1367.84,-56.71,,
1367.855,-56.83,,
1367.87,-56.49,,
1367.885,-56.54,,
1367.9,-56.89,,
1367.915,-56.68,,
1367.93,-56.45,,
1367.945,-56.6,,
1367.96,-56.16,,
1367.975,-56.13,,
1367.99,-56.56,,
1368.005,-56.33,,
1368.02,-56.1,,
1368.035,-56.11,,
1368.05,-56.31,,
1368.065,-56.27,,
1368.08,-56.52,,
1368.095,-56.55,,
1368.11,-56.31,,
1368.125,-56.46,,
1368.14,-56.78,,
1368.155,-56.53,,
1368.17,-56.42,,
1368.185,-56.59,,
1368.2,-56.3,,
1368.215,-56.42,,
1368.23,-56.81,,
1368.245,-56.48,,
1368.26,-56.26,,
1368.275,-56.38,,
1368.29,-56.16,,
1368.305,-56.23,,
1368.32,-56.54,,
1368.335,-56.31,,
1368.35,-56.05,,
1368.365,-56.32,,
1368.38,-56.47,,
1368.395,-56.19,,
1368.41,-56.55,,
1368.425,-56.34,,
1368.44,-56.12,,
1368.455,-56.35,,
1368.47,-56.53,,
1368.485,-56.21,,
1368.5,-56.5,,
1368.515,-56.53,,
1368.53,-56.32,,
1368.545,-56.53,,
1368.56,-56.96,,
1368.575,-56.45,,
1368.59,-56.4,,
1368.605,-56.79,,
1368.62,-56.48,,
1368.635,-56.33,,
1368.65,-56.64,,
1368.665,-56.36,,
1368.68,-56.17,,
1368.695,-56.53,,
1368.71,-56.75,,
1368.725,-56.38,,
1368.74,-56.69,,
1368.755,-56.52,,
1368.77,-56.32,,
1368.785,-56.59,,
1368.8,-56.88,,
1368.815,-56.53,,
1368.83,-56.43,,
1368.845,-56.83,,
1368.86,-56.49,,
1368.875,-56.72,,
1368.89,-56.97,,
1368.905,-56.61,,
1368.92,-56.48,,
1368.935,-56.91,,
1368.95,-56.72,,
1368.965,-56.69,,
1368.98,-57.13,,
1368.995,-56.64,,
1369.01,-56.51,,
1369.025,-56.88,,
1369.04,-57.04,,
1369.055,-56.65,,
1369.07,-56.81,,
1369.085,-57.0,,
1369.1,-56.57,,
1369.115,-56.89,,
1369.13,-57.07,,
1369.145,-56.57,,
1369.16,-56.49,,
1369.175,-57.03,,
1369.19,-56.69,,
1369.205,-56.5,,
1369.22,-56.87,,
1369.235,-56.43,,
1369.25,-56.37,,
1369.265,-56.64,,
1369.28,-56.67,,
1369.295,-56.66,,
1369.31,-56.77,,
1369.325,-56.82,,
1369.34,-56.63,,
1369.355,-56.91,,
1369.37,-57.07,,
1369.385,-56.72,,
1369.4,-56.73,,
1369.415,-56.77,,
1369.43,-56.72,,
1369.445,-56.62,,
1369.46,-56.89,,
1369.475,-56.53,,
1369.49,-56.54,,
1369.505,-56.57,,
1369.52,-56.56,,
1369.535,-56.5,,
1369.55,-56.65,,
1369.565,-56.29,,
1369.58,-56.23,,
1369.595,-56.57,,
1369.61,-56.39,,
1369.625,-56.41,,
1369.64,-56.48,,
1369.655,-56.62,,
1369.67,-56.36,,
1369.685,-56.7,,
1369.7,-56.87,,
1369.715,-56.45,,
1369.73,-56.51,,
1369.745,-56.45,,
1369.76,-56.54,,
1369.775,-56.64,,
1369.79,-56.77,,
1369.805,-56.43,,
1369.82,-56.43,,
1369.835,-56.71,,
1369.85,-56.53,,
1369.865,-56.53,,
1369.88,-56.65,,
1369.895,-56.32,,
1369.91,-56.34,,
1369.925,-56.57,,
1369.94,-56.57,,
1369.955,-56.33,,
1369.97,-56.51,,
1369.985,-56.52,,
1370.0,-56.45,,
