wavelength_axis,light_level
1250.0,-55.65
1250.015,-55.57
1250.03,-55.39
1250.045,-55.65
1250.06,-55.62
1250.075,-55.77
1250.09,-55.52
1250.105,-55.48
1250.12,-55.42
1250.135,-55.62
1250.15,-55.61
1250.165,-55.62
1250.18,-55.39
1250.195,-55.41
1250.21,-55.66
1250.225,-55.65
1250.24,-55.64
1250.255,-55.49
1250.27,-55.49
1250.285,-55.51
1250.3,-55.73
1250.315,-55.63
1250.33,-55.62
1250.345,-55.42
1250.36,-55.57
1250.375,-55.64
1250.39,-55.63
1250.405,-55.57
1250.42,-55.39
1250.435,-55.4
1250.45,-55.53
1250.465,-55.64
1250.48,-55.46
1250.495,-55.43
1250.51,-55.29
1250.525,-55.47
1250.54,-55.55
1250.555,-55.7
1250.57,-55.52
1250.585,-55.55
1250.6,-55.71
1250.615,-55.92
1250.63,-55.8
1250.645,-55.89
1250.66,-55.58
1250.675,-55.6
1250.69,-55.8
1250.705,-55.85
1250.72,-55.75
1250.735,-55.54
1250.75,-55.74
1250.765,-55.78
1250.78,-56.01
1250.795,-55.81
1250.81,-55.71
1250.825,-55.5
1250.84,-55.69
1250.855,-55.78
1250.87,-55.77
1250.885,-55.64
1250.9,-55.6
1250.915,-55.64
1250.93,-55.83
1250.945,-55.94
1250.96,-55.66
1250.975,-55.5
1250.99,-55.49
1251.005,-55.69
1251.02,-55.7
1251.035,-55.81
1251.05,-55.53
1251.065,-55.6
1251.08,-55.7
1251.095,-56.01
1251.11,-56.01
1251.125,-55.88
1251.14,-55.86
1251.155,-55.79
1251.17,-55.95
1251.185,-55.94
1251.2,-55.9
1251.215,-55.66
1251.23,-55.82
1251.245,-55.96
1251.26,-56.22
1251.275,-55.99
1251.29,-55.86
1251.305,-55.69
1251.32,-55.88
1251.335,-55.99
1251.35,-56.03
1251.365,-55.82
1251.38,-55.71
1251.395,-55.94
1251.41,-56.09
1251.425,-56.23
1251.44,-55.9
1251.455,-55.78
1251.47,-55.61
1251.485,-55.92
1251.5,-55.86
1251.515,-55.74
1251.53,-55.53
1251.545,-55.53
1251.56,-55.62
1251.575,-55.76
1251.59,-55.73
1251.605,-55.49
1251.62,-55.44
1251.635,-55.46
1251.65,-55.65
1251.665,-55.69
1251.68,-55.67
1251.695,-55.44
1251.71,-55.54
1251.725,-55.74
1251.74,-55.73
1251.755,-55.51
1251.77,-55.55
1251.785,-55.54
1251.8,-55.61
1251.815,-55.74
1251.83,-55.78
1251.845,-55.63
1251.86,-55.48
1251.875,-55.71
1251.89,-55.83
1251.905,-55.79
1251.92,-55.62
1251.935,-55.48
1251.95,-55.66
1251.965,-55.68
1251.98,-55.71
1251.995,-55.65
1252.01,-55.54
1252.025,-55.73
1252.04,-55.9
1252.055,-55.88
1252.07,-55.84
1252.085,-55.85
1252.1,-55.7
1252.115,-55.8
1252.13,-55.76
1252.145,-55.52
1252.16,-55.53
1252.175,-55.51
1252.19,-55.67
1252.205,-55.86
1252.22,-55.84
1252.235,-55.77
1252.25,-55.92
1252.265,-55.83
1252.28,-55.88
1252.295,-55.79
1252.31,-55.93
1252.325,-55.81
1252.34,-55.93
1252.355,-55.85
1252.37,-55.93
1252.385,-55.9
1252.4,-55.88
1252.415,-55.95
1252.43,-56.09
1252.445,-56.17
1252.46,-56.02
1252.475,-56.25
1252.49,-56.08
1252.505,-56.16
1252.52,-56.16
1252.535,-56.3
1252.55,-56.33
1252.565,-56.36
1252.58,-56.34
1252.595,-56.22
1252.61,-56.28
1252.625,-56.13
1252.64,-56.35
1252.655,-56.15
1252.67,-56.12
1252.685,-56.08
1252.7,-56.29
1252.715,-56.24
1252.73,-56.24
1252.745,-56.25
1252.76,-56.28
1252.775,-56.24
1252.79,-56.11
1252.805,-56.26
1252.82,-56.06
1252.835,-56.14
1252.85,-56.09
1252.865,-56.31
1252.88,-56.15
1252.895,-56.21
1252.91,-56.2
1252.925,-56.2
1252.94,-56.18
1252.955,-56.09
1252.97,-56.26
1252.985,-56.08
1253.0,-56.18
1253.015,-56.12
1253.03,-56.2
1253.045,-55.99
1253.06,-56.13
1253.075,-56.08
1253.09,-55.97
1253.105,-56.06
1253.12,-56.02
1253.135,-56.06
1253.15,-56.01
1253.165,-56.05
1253.18,-55.93
1253.195,-56.04
1253.21,-55.77
1253.225,-55.91
1253.24,-55.84
1253.255,-55.77
1253.271,-55.79
1253.285,-55.83
1253.3,-55.83
1253.315,-55.77
1253.33,-55.92
1253.345,-55.74
1253.36,-55.92
1253.375,-55.79
1253.391,-55.9
1253.406,-55.79
1253.421,-55.79
1253.435,-55.57
1253.45,-55.65
1253.465,-55.66
1253.48,-55.55
1253.495,-55.72
1253.51,-55.66
1253.526,-55.8
1253.541,-55.72
1253.556,-55.8
1253.571,-55.7
1253.585,-55.74
1253.6,-55.81
1253.615,-55.77
1253.63,-55.77
1253.646,-55.69
1253.661,-55.81
1253.676,-55.93
1253.691,-55.97
1253.706,-55.83
1253.72,-55.96
1253.735,-55.78
1253.75,-55.95
1253.766,-55.87
1253.781,-55.89
1253.796,-55.86
1253.811,-55.83
1253.826,-55.95
1253.841,-55.81
1253.856,-55.89
1253.87,-55.76
1253.885,-56.0
1253.901,-55.9
1253.916,-55.95
1253.931,-55.87
1253.946,-56.05
1253.961,-55.94
1253.976,-55.92
1253.991,-56.02
1254.005,-55.99
1254.021,-56.03
1254.036,-55.92
1254.051,-56.07
1254.066,-55.84
1254.081,-55.94
1254.096,-55.89
1254.111,-55.89
1254.126,-55.91
1254.141,-55.95
1254.156,-55.96
1254.171,-55.97
1254.186,-55.95
1254.201,-55.9
1254.216,-56.03
1254.231,-55.82
1254.246,-55.92
1254.261,-55.79
1254.276,-55.82
1254.291,-55.64
1254.306,-55.77
1254.321,-55.76
1254.336,-55.76
1254.351,-55.86
1254.366,-55.82
1254.381,-55.77
1254.396,-55.76
1254.411,-55.84
1254.426,-55.74
1254.441,-55.86
1254.456,-55.64
1254.471,-55.74
1254.486,-55.74
1254.501,-55.7
1254.516,-55.71
1254.531,-55.72
1254.546,-55.72
1254.561,-55.67
1254.576,-55.82
1254.591,-55.74
1254.606,-55.78
1254.621,-55.68
1254.636,-55.82
1254.651,-55.81
1254.666,-55.84
1254.681,-55.68
1254.696,-55.76
1254.711,-55.7
1254.726,-55.69
1254.741,-55.91
1254.756,-55.79
1254.771,-55.83
1254.786,-55.76
1254.801,-55.88
1254.816,-55.68
1254.831,-55.74
1254.846,-55.73
1254.861,-55.68
1254.876,-55.73
1254.891,-55.64
1254.906,-55.66
1254.921,-55.49
1254.936,-55.57
1254.951,-55.57
1254.966,-55.72
1254.981,-55.72
1254.996,-55.73
1255.011,-55.61
1255.026,-55.76
1255.041,-55.78
1255.056,-55.72
1255.071,-55.66
1255.086,-55.55
1255.101,-55.55
1255.116,-55.65
1255.131,-55.58
1255.146,-55.32
1255.161,-55.3
1255.176,-55.32
1255.191,-55.59
1255.206,-55.6
1255.221,-55.57
1255.236,-55.55
1255.251,-55.57
1255.266,-55.7
1255.281,-55.78
1255.296,-55.67
1255.311,-55.55
1255.326,-55.6
1255.341,-55.63
1255.356,-55.74
1255.371,-55.53
1255.386,-55.63
1255.401,-55.53
1255.416,-55.7
1255.431,-55.88
1255.446,-55.85
1255.461,-55.72
1255.476,-55.67
1255.491,-55.65
1255.506,-55.76
1255.521,-55.75
1255.536,-55.51
1255.551,-55.51
1255.566,-55.6
1255.581,-55.68
1255.596,-55.63
1255.611,-55.55
1255.626,-55.57
1255.641,-55.54
1255.656,-55.83
1255.671,-55.78
1255.686,-55.75
1255.701,-55.53
1255.716,-55.71
1255.731,-55.74
1255.746,-55.79
1255.761,-55.55
1255.776,-55.43
1255.791,-55.47
1255.806,-55.49
1255.821,-55.76
1255.836,-55.45
1255.851,-55.44
1255.866,-55.44
1255.881,-55.69
1255.896,-55.79
1255.911,-55.74
1255.926,-55.64
1255.941,-55.71
1255.956,-55.91
1255.971,-55.99
1255.986,-55.87
1256.001,-55.67
1256.016,-55.91
1256.031,-55.86
1256.046,-56.07
1256.061,-55.85
1256.076,-55.78
1256.091,-55.74
1256.106,-55.95
1256.121,-56.02
1256.136,-55.82
1256.151,-55.88
1256.166,-55.86
1256.181,-56.02
1256.196,-56.08
1256.211,-56.07
1256.226,-55.86
1256.241,-55.89
1256.256,-56.07
1256.271,-56.24
1256.286,-56.14
1256.301,-56.11
1256.316,-56.18
1256.331,-56.15
1256.346,-56.47
1256.361,-56.15
1256.376,-56.0
1256.391,-55.84
1256.406,-55.99
1256.421,-56.13
1256.436,-55.92
1256.451,-55.7
1256.466,-55.7
1256.481,-55.78
1256.496,-56.08
1256.511,-56.18
1256.526,-55.93
1256.541,-56.0
1256.556,-56.24
1256.571,-56.3
1256.586,-56.32
1256.601,-56.14
1256.616,-56.04
1256.631,-56.05
1256.646,-56.32
1256.661,-56.19
1256.676,-55.9
1256.691,-55.75
1256.706,-55.81
1256.721,-55.91
1256.736,-56.13
1256.751,-55.88
1256.766,-55.85
1256.781,-55.93
1256.796,-55.97
1256.811,-56.2
1256.826,-55.97
1256.841,-55.98
1256.856,-55.89
1256.871,-56.12
1256.886,-56.18
1256.901,-55.96
1256.916,-55.81
1256.931,-55.85
1256.946,-56.05
1256.961,-55.98
1256.976,-56.06
1256.991,-55.85
1257.006,-55.86
1257.021,-55.7
1257.036,-55.83
1257.051,-55.83
1257.066,-55.67
1257.081,-55.68
1257.096,-55.74
1257.111,-55.9
1257.126,-55.77
1257.141,-55.93
1257.156,-55.83
1257.171,-55.91
1257.186,-56.1
1257.201,-56.04
1257.216,-56.0
1257.231,-55.89
1257.246,-55.96
1257.261,-55.88
1257.276,-56.0
1257.291,-55.8
1257.306,-55.91
1257.321,-55.76
1257.336,-55.85
1257.351,-55.84
1257.366,-55.89
1257.381,-55.92
1257.396,-55.91
1257.411,-56.09
1257.426,-55.9
1257.441,-56.09
1257.456,-55.94
1257.471,-56.0
1257.486,-55.98
1257.501,-55.95
1257.516,-55.87
1257.531,-55.81
1257.546,-55.86
1257.561,-55.63
1257.576,-55.73
1257.591,-55.58
1257.606,-55.75
1257.621,-55.66
1257.636,-55.76
1257.651,-55.81
1257.666,-55.92
1257.681,-56.02
1257.696,-55.98
1257.711,-56.07
1257.726,-56.0
1257.741,-56.0
1257.756,-55.86
1257.771,-55.88
1257.786,-55.8
1257.801,-55.92
1257.816,-55.88
1257.831,-55.76
1257.846,-55.85
1257.861,-55.93
1257.876,-56.02
1257.891,-55.91
1257.906,-56.12
1257.921,-56.05
1257.936,-56.09
1257.951,-56.15
1257.966,-56.25
1257.981,-55.95
1257.996,-55.85
1258.011,-55.94
1258.026,-55.97
1258.041,-56.13
1258.056,-55.83
1258.071,-55.82
1258.086,-55.79
1258.101,-56.03
1258.116,-56.07
1258.131,-55.96
1258.146,-55.84
1258.161,-55.78
1258.176,-55.93
1258.191,-56.0
1258.206,-56.08
1258.221,-55.83
1258.236,-55.88
1258.251,-56.04
1258.266,-56.1
1258.281,-55.99
1258.296,-55.88
1258.311,-55.76
1258.326,-55.75
1258.341,-55.97
1258.356,-55.87
1258.371,-55.59
1258.386,-55.52
1258.401,-55.66
1258.416,-55.83
1258.431,-55.73
1258.446,-55.63
1258.461,-55.57
1258.476,-55.69
1258.491,-55.93
1258.506,-56.11
1258.521,-55.93
1258.536,-55.91
1258.551,-56.03
1258.566,-56.23
1258.581,-56.26
1258.596,-56.22
1258.611,-56.02
1258.626,-56.08
1258.641,-56.22
1258.656,-56.23
1258.671,-55.79
1258.686,-55.67
1258.701,-55.69
1258.716,-55.84
1258.731,-55.93
1258.746,-55.8
1258.761,-55.73
1258.776,-55.69
1258.791,-55.94
1258.806,-56.13
1258.821,-55.94
1258.836,-55.94
1258.851,-55.93
1258.866,-56.05
1258.881,-56.16
1258.896,-55.97
1258.911,-55.82
1258.926,-55.73
1258.941,-55.98
1258.956,-55.86
1258.971,-55.63
1258.986,-55.46
1259.001,-55.59
1259.016,-55.78
1259.031,-55.85
1259.046,-55.65
1259.061,-55.51
1259.076,-55.64
1259.091,-55.83
1259.106,-55.95
1259.121,-55.74
1259.136,-55.76
1259.151,-55.78
1259.166,-55.92
1259.181,-56.08
1259.196,-55.84
1259.211,-55.58
1259.226,-55.57
1259.241,-55.78
1259.256,-55.79
1259.271,-55.61
1259.286,-55.43
1259.301,-55.48
1259.316,-55.63
1259.331,-55.65
1259.346,-55.61
1259.361,-55.39
1259.376,-55.53
1259.391,-55.81
1259.406,-56.05
1259.421,-55.75
1259.436,-55.77
1259.451,-55.73
1259.466,-55.88
1259.481,-56.06
1259.496,-55.85
1259.511,-55.66
1259.526,-55.46
1259.541,-55.81
1259.556,-55.73
1259.571,-55.58
1259.586,-55.4
1259.601,-55.45
1259.616,-55.64
1259.631,-55.56
1259.646,-55.49
1259.661,-55.28
1259.676,-55.56
1259.691,-55.6
1259.706,-55.84
1259.721,-55.57
1259.736,-55.5
1259.751,-55.6
1259.766,-55.78
1259.781,-55.89
1259.796,-55.76
1259.811,-55.63
1259.826,-55.52
1259.841,-55.74
1259.856,-55.69
1259.871,-55.69
1259.886,-55.47
1259.901,-55.62
1259.916,-55.69
1259.931,-55.75
1259.946,-55.58
1259.961,-55.5
1259.976,-55.66
1259.991,-55.75
1260.006,-55.89
1260.021,-55.57
1260.036,-55.61
1260.051,-55.76
1260.066,-56.09
1260.081,-56.03
1260.096,-55.94
1260.111,-55.83
1260.126,-55.85
1260.141,-56.08
1260.156,-55.97
1260.171,-55.9
1260.186,-55.7
1260.201,-55.78
1260.216,-56.03
1260.231,-55.99
1260.246,-55.86
1260.261,-55.64
1260.276,-55.84
1260.291,-55.99
1260.306,-56.18
1260.321,-55.95
1260.336,-55.98
1260.351,-56.16
1260.366,-56.47
1260.381,-56.49
1260.396,-56.2
1260.411,-56.11
1260.426,-56.11
1260.441,-56.38
1260.456,-56.27
1260.471,-56.22
1260.486,-55.97
1260.501,-56.05
1260.516,-56.18
1260.531,-56.26
1260.546,-56.04
1260.561,-55.93
1260.576,-56.13
1260.591,-56.36
1260.606,-56.44
1260.621,-56.08
1260.636,-56.13
1260.651,-56.34
1260.666,-56.46
1260.681,-56.43
1260.696,-56.27
1260.711,-56.06
1260.726,-56.42
1260.741,-56.76
1260.756,-56.52
1260.771,-56.26
1260.786,-56.32
1260.801,-56.37
1260.816,-56.55
1260.831,-56.6
1260.846,-56.34
1260.861,-56.26
1260.876,-56.42
1260.891,-56.61
1260.906,-56.4
1260.921,-56.27
1260.936,-56.22
1260.951,-56.45
1260.966,-56.6
1260.981,-56.35
1260.996,-56.32
1261.011,-56.23
1261.026,-56.54
1261.041,-56.55
1261.056,-56.44
1261.071,-56.08
1261.086,-56.1
1261.101,-56.37
1261.116,-56.47
1261.131,-56.48
1261.146,-56.14
1261.161,-56.31
1261.176,-56.46
1261.191,-56.68
1261.206,-56.64
1261.221,-56.25
1261.236,-56.5
1261.251,-56.64
1261.266,-56.84
1261.281,-56.6
1261.297,-56.48
1261.312,-56.33
1261.326,-56.51
1261.341,-56.54
1261.356,-56.2
1261.371,-55.92
1261.386,-55.9
1261.401,-56.26
1261.417,-56.1
1261.432,-55.98
1261.447,-55.65
1261.461,-55.76
1261.476,-55.97
1261.491,-55.95
1261.506,-55.95
1261.521,-55.72
1261.536,-55.97
1261.552,-56.06
1261.567,-56.19
1261.582,-55.98
1261.597,-55.88
1261.611,-55.89
1261.626,-56.07
1261.641,-56.19
1261.656,-55.93
1261.672,-55.95
1261.687,-55.77
1261.702,-56.08
1261.717,-56.1
1261.732,-55.86
1261.746,-55.54
1261.761,-55.69
1261.776,-55.79
1261.792,-55.67
1261.807,-55.64
1261.822,-55.43
1261.837,-55.58
1261.852,-55.6
1261.867,-55.71
1261.882,-55.58
1261.896,-55.44
1261.911,-55.67
1261.927,-55.81
1261.942,-55.87
1261.957,-55.66
1261.972,-55.6
1261.987,-55.66
1262.002,-55.95
1262.017,-55.88
1262.031,-55.67
1262.047,-55.61
1262.062,-55.66
1262.077,-55.88
1262.092,-55.81
1262.107,-55.6
1262.122,-55.46
1262.137,-55.56
1262.152,-55.64
1262.167,-55.63
1262.182,-55.47
1262.197,-55.37
1262.212,-55.52
1262.227,-55.81
1262.242,-55.66
1262.257,-55.44
1262.272,-55.34
1262.287,-55.42
1262.302,-55.59
1262.317,-55.61
1262.332,-55.46
1262.347,-55.39
1262.362,-55.62
1262.377,-55.81
1262.392,-55.72
1262.407,-55.42
1262.422,-55.37
1262.437,-55.62
1262.452,-55.88
1262.467,-55.91
1262.482,-55.6
1262.497,-55.66
1262.512,-55.87
1262.527,-56.06
1262.542,-55.98
1262.557,-55.73
1262.572,-55.68
1262.587,-55.73
1262.602,-55.95
1262.617,-55.73
1262.632,-55.5
1262.647,-55.56
1262.662,-55.71
1262.677,-55.81
1262.692,-55.76
1262.707,-55.5
1262.722,-55.42
1262.737,-55.68
1262.752,-55.89
1262.767,-55.64
1262.782,-55.56
1262.797,-55.52
1262.812,-55.78
1262.827,-55.79
1262.842,-55.55
1262.857,-55.5
1262.872,-55.43
1262.887,-55.67
1262.902,-55.64
1262.917,-55.61
1262.932,-55.3
1262.947,-55.34
1262.962,-55.56
1262.977,-55.63
1262.992,-55.53
1263.007,-55.27
1263.022,-55.5
1263.037,-55.63
1263.052,-55.79
1263.067,-55.65
1263.082,-55.5
1263.097,-55.74
1263.112,-55.97
1263.127,-56.04
1263.142,-55.78
1263.157,-55.92
1263.172,-55.79
1263.187,-56.02
1263.202,-55.89
1263.217,-55.65
1263.232,-55.41
1263.247,-55.44
1263.262,-55.69
1263.277,-55.6
1263.292,-55.6
1263.307,-55.42
1263.322,-55.5
1263.337,-55.57
1263.352,-55.58
1263.367,-55.41
1263.382,-55.33
1263.397,-55.64
1263.412,-55.69
1263.427,-55.84
1263.442,-55.6
1263.457,-55.58
1263.472,-55.67
1263.487,-55.87
1263.502,-55.82
1263.517,-55.61
1263.532,-55.51
1263.547,-55.41
1263.562,-55.63
1263.577,-55.49
1263.592,-55.56
1263.607,-55.56
1263.622,-55.64
1263.637,-55.93
1263.652,-55.78
1263.667,-55.79
1263.682,-55.48
1263.697,-55.77
1263.712,-55.79
1263.727,-55.88
1263.742,-55.61
1263.757,-55.6
1263.772,-55.87
1263.787,-55.82
1263.802,-55.89
1263.817,-55.65
1263.832,-55.71
1263.847,-55.84
1263.862,-55.73
1263.877,-55.73
1263.892,-55.53
1263.907,-55.77
1263.922,-55.69
1263.937,-55.92
1263.952,-55.72
1263.967,-55.7
1263.982,-55.74
1263.997,-55.94
1264.012,-56.12
1264.027,-55.83
1264.042,-55.87
1264.057,-55.94
1264.072,-56.11
1264.087,-56.07
1264.102,-55.83
1264.117,-55.75
1264.132,-55.74
1264.147,-56.01
1264.162,-55.75
1264.177,-55.77
1264.192,-55.54
1264.207,-55.73
1264.222,-55.87
1264.237,-55.85
1264.252,-55.83
1264.267,-55.7
1264.282,-55.9
1264.297,-55.84
1264.312,-55.91
1264.327,-55.79
1264.342,-55.69
1264.357,-55.94
1264.372,-55.96
1264.387,-56.02
1264.402,-55.74
1264.417,-55.8
1264.432,-55.85
1264.447,-56.17
1264.462,-56.08
1264.477,-55.84
1264.492,-55.85
1264.507,-55.97
1264.522,-56.15
1264.537,-55.99
1264.552,-56.0
1264.567,-56.0
1264.582,-56.23
1264.597,-56.21
1264.612,-55.96
1264.627,-55.94
1264.642,-55.75
1264.657,-55.99
1264.672,-55.85
1264.687,-55.95
1264.702,-55.76
1264.717,-55.83
1264.732,-55.98
1264.747,-55.99
1264.762,-56.0
1264.777,-55.75
1264.792,-55.92
1264.807,-55.96
1264.822,-55.96
1264.837,-55.8
1264.852,-55.69
1264.867,-56.02
1264.882,-56.12
1264.897,-56.29
1264.912,-55.98
1264.927,-56.01
1264.942,-56.05
1264.957,-56.38
1264.972,-56.38
1264.987,-56.18
1265.002,-56.13
1265.017,-56.07
1265.032,-56.41
1265.047,-56.21
1265.062,-56.0
1265.077,-56.04
1265.092,-56.19
1265.107,-56.34
1265.122,-56.15
1265.137,-56.12
1265.152,-55.89
1265.167,-56.17
1265.182,-56.15
1265.197,-56.17
1265.212,-55.95
1265.227,-55.87
1265.242,-56.17
1265.257,-56.22
1265.272,-56.13
1265.287,-55.8
1265.302,-55.9
1265.317,-56.08
1265.332,-56.11
1265.347,-56.23
1265.362,-55.92
1265.377,-56.07
1265.392,-56.2
1265.407,-56.41
1265.422,-56.27
1265.437,-56.07
1265.452,-55.94
1265.467,-56.0
1265.482,-56.24
1265.497,-55.94
1265.512,-55.82
1265.527,-55.81
1265.542,-55.97
1265.557,-56.16
1265.572,-55.93
1265.587,-55.8
1265.602,-55.76
1265.617,-56.1
1265.632,-56.03
1265.647,-55.94
1265.662,-55.68
1265.677,-55.89
1265.692,-56.08
1265.707,-55.98
1265.722,-55.83
1265.737,-55.72
1265.752,-55.96
1265.767,-55.99
1265.782,-55.97
1265.797,-55.73
1265.812,-55.66
1265.827,-55.89
1265.842,-56.02
1265.857,-56.12
1265.872,-55.83
1265.887,-55.9
1265.902,-55.91
1265.917,-56.25
1265.932,-56.14
1265.947,-55.89
1265.962,-55.86
1265.977,-55.82
1265.992,-56.03
1266.007,-55.81
1266.022,-55.75
1266.037,-55.73
1266.052,-55.92
1266.067,-56.09
1266.082,-55.8
1266.097,-55.7
1266.112,-55.6
1266.127,-55.92
1266.142,-55.91
1266.157,-55.83
1266.172,-55.66
1266.187,-55.65
1266.202,-55.86
1266.217,-55.93
1266.232,-56.05
1266.247,-55.78
1266.262,-55.77
1266.277,-55.98
1266.292,-56.05
1266.307,-56.05
1266.322,-55.83
1266.337,-55.96
1266.352,-56.01
1266.367,-56.21
1266.382,-56.04
1266.397,-55.87
1266.412,-55.89
1266.427,-55.94
1266.442,-56.09
1266.457,-55.9
1266.472,-55.87
1266.487,-55.94
1266.502,-56.15
1266.517,-56.19
1266.532,-56.03
1266.547,-56.02
1266.562,-55.86
1266.577,-56.16
1266.592,-56.03
1266.607,-56.05
1266.622,-56.03
1266.637,-56.01
1266.652,-56.31
1266.667,-56.37
1266.682,-56.16
1266.697,-55.93
1266.712,-56.27
1266.727,-56.41
1266.742,-56.25
1266.757,-56.13
1266.772,-55.98
1266.787,-56.22
1266.802,-56.36
1266.817,-56.37
1266.832,-56.15
1266.847,-56.18
1266.862,-56.31
1266.877,-56.33
1266.892,-56.24
1266.907,-56.04
1266.922,-55.98
1266.937,-56.08
1266.952,-56.08
1266.967,-55.9
1266.982,-55.96
1266.997,-55.92
1267.012,-55.99
1267.027,-56.01
1267.042,-55.81
1267.057,-55.72
1267.072,-55.7
1267.087,-55.75
1267.102,-55.8
1267.117,-55.79
1267.132,-55.6
1267.147,-55.72
1267.162,-55.82
1267.177,-55.92
1267.192,-55.78
1267.207,-55.82
1267.222,-55.87
1267.237,-55.71
1267.252,-55.74
1267.267,-55.74
1267.282,-55.78
1267.297,-55.78
1267.312,-55.87
1267.327,-55.82
1267.342,-55.82
1267.357,-55.9
1267.372,-55.71
1267.387,-55.76
1267.402,-55.8
1267.417,-55.72
1267.432,-55.78
1267.447,-55.79
1267.462,-55.82
1267.477,-55.86
1267.492,-55.83
1267.507,-55.71
1267.522,-55.78
1267.537,-55.73
1267.552,-55.81
1267.567,-56.06
1267.582,-55.97
1267.597,-56.04
1267.612,-56.12
1267.627,-56.0
1267.642,-56.18
1267.657,-56.14
1267.672,-56.13
1267.687,-56.09
1267.702,-56.32
1267.717,-56.12
1267.732,-56.22
1267.747,-56.28
1267.762,-56.17
1267.777,-56.44
1267.792,-56.4
1267.807,-56.38
1267.822,-56.34
1267.837,-56.42
1267.852,-56.67
1267.867,-56.6
1267.882,-56.6
1267.897,-56.53
1267.912,-56.86
1267.927,-56.75
1267.942,-56.76
1267.957,-56.79
1267.972,-56.83
1267.987,-57.01
1268.002,-56.93
1268.017,-56.98
1268.032,-56.83
1268.047,-56.95
1268.062,-56.8
1268.077,-56.87
1268.092,-56.86
1268.107,-56.63
1268.122,-56.74
1268.137,-56.72
1268.152,-56.71
1268.167,-56.69
1268.182,-56.44
1268.197,-56.57
1268.212,-56.41
1268.227,-56.59
1268.242,-56.54
1268.257,-56.52
1268.272,-56.57
1268.287,-56.4
1268.302,-56.62
1268.317,-56.41
1268.332,-56.56
1268.347,-56.53
1268.362,-56.43
1268.377,-56.46
1268.392,-56.33
1268.407,-56.35
1268.422,-56.32
1268.437,-56.44
1268.452,-56.18
1268.467,-56.11
1268.482,-56.07
1268.497,-56.0
1268.512,-56.15
1268.527,-55.86
1268.542,-55.99
1268.557,-55.9
1268.572,-55.83
1268.587,-55.88
1268.602,-55.66
1268.617,-55.66
1268.632,-55.63
1268.647,-55.63
1268.662,-55.41
1268.677,-55.53
1268.692,-55.46
1268.707,-55.38
1268.722,-55.56
1268.737,-55.4
1268.752,-55.38
1268.767,-55.42
1268.782,-55.28
1268.797,-55.39
1268.812,-55.43
1268.827,-55.43
1268.842,-55.39
1268.857,-55.36
1268.872,-55.36
1268.887,-55.49
1268.902,-55.42
1268.917,-55.37
1268.932,-55.56
1268.947,-55.48
1268.962,-55.6
1268.977,-55.56
1268.992,-55.47
1269.007,-55.55
1269.022,-55.51
1269.037,-55.73
1269.052,-55.6
1269.067,-55.81
1269.082,-55.86
1269.097,-56.02
1269.112,-56.16
1269.127,-55.95
1269.142,-56.18
1269.157,-56.12
1269.172,-56.16
1269.188,-56.17
1269.202,-56.26
1269.217,-56.46
1269.232,-56.26
1269.247,-56.45
1269.262,-56.41
1269.277,-56.46
1269.292,-56.47
1269.307,-56.46
1269.323,-56.51
1269.338,-56.38
1269.352,-56.52
1269.367,-56.36
1269.382,-56.46
1269.397,-56.46
1269.412,-56.43
1269.427,-56.45
1269.443,-56.27
1269.458,-56.56
1269.473,-56.6
1269.487,-56.64
1269.502,-56.6
1269.517,-56.44
1269.532,-56.81
1269.547,-56.68
1269.563,-56.74
1269.578,-56.64
1269.593,-56.59
1269.608,-56.7
1269.623,-56.61
1269.637,-56.64
1269.652,-56.47
1269.667,-56.75
1269.682,-56.46
1269.698,-56.48
1269.713,-56.51
1269.728,-56.39
1269.743,-56.53
1269.758,-56.4
1269.772,-56.47
1269.787,-56.61
1269.802,-56.56
1269.818,-56.42
1269.833,-56.29
1269.848,-56.46
1269.863,-56.38
1269.878,-56.49
1269.893,-56.18
1269.908,-56.41
1269.922,-56.3
1269.938,-56.11
1269.953,-56.2
1269.968,-55.87
1269.983,-56.0
1269.998,-55.97
1270.013,-55.88
1270.028,-55.9
1270.043,-55.87
1270.058,-55.9
1270.073,-55.91
1270.088,-55.83
1270.103,-55.76
1270.118,-55.78
1270.133,-55.85
1270.148,-55.75
1270.163,-55.92
1270.178,-55.83
1270.193,-55.88
1270.208,-55.8
1270.223,-55.76
1270.238,-55.95
1270.253,-55.85
1270.268,-55.87
1270.283,-55.81
1270.298,-55.91
1270.313,-55.87
1270.328,-55.94
1270.343,-55.95
1270.358,-55.82
1270.373,-56.06
1270.388,-55.94
1270.403,-56.07
1270.418,-56.08
1270.433,-56.16
1270.448,-56.43
1270.463,-56.39
1270.478,-56.37
1270.493,-56.31
1270.508,-56.44
1270.523,-56.38
1270.538,-56.34
1270.553,-56.35
1270.568,-56.33
1270.583,-56.56
1270.598,-56.41
1270.613,-56.48
1270.628,-56.41
1270.643,-56.43
1270.658,-56.47
1270.673,-56.41
1270.688,-56.47
1270.703,-56.45
1270.718,-56.6
1270.733,-56.5
1270.748,-56.47
1270.763,-56.53
1270.778,-56.38
1270.793,-56.38
1270.808,-56.3
1270.823,-56.45
1270.838,-56.45
1270.853,-56.35
1270.868,-56.38
1270.883,-56.21
1270.898,-56.39
1270.913,-56.16
1270.928,-56.2
1270.943,-56.15
1270.958,-56.05
1270.973,-56.21
1270.988,-56.03
1271.003,-56.1
1271.018,-56.11
1271.033,-56.15
1271.048,-55.99
1271.063,-55.94
1271.078,-55.94
1271.093,-55.93
1271.108,-56.02
1271.123,-55.8
1271.138,-55.91
1271.153,-55.99
1271.168,-55.79
1271.183,-55.94
1271.198,-55.75
1271.213,-55.92
1271.228,-55.83
1271.243,-55.8
1271.258,-55.77
1271.273,-55.86
1271.288,-55.85
1271.303,-55.78
1271.318,-55.87
1271.333,-55.71
1271.348,-55.84
1271.363,-55.83
1271.378,-55.76
1271.393,-55.87
1271.408,-55.84
1271.423,-55.92
1271.438,-55.89
1271.453,-55.79
1271.468,-55.75
1271.483,-55.77
1271.498,-55.84
1271.513,-55.75
1271.528,-55.88
1271.543,-55.83
1271.558,-55.91
1271.573,-55.87
1271.588,-55.72
1271.603,-55.93
1271.618,-55.74
1271.633,-55.9
1271.648,-55.9
1271.663,-56.0
1271.678,-56.12
1271.693,-56.01
1271.708,-56.11
1271.723,-55.96
1271.738,-56.11
1271.753,-56.16
1271.768,-56.23
1271.783,-56.28
1271.798,-56.27
1271.813,-56.42
1271.828,-56.33
1271.843,-56.43
1271.858,-56.39
1271.873,-56.45
1271.888,-56.67
1271.903,-56.47
1271.918,-56.61
1271.933,-56.55
1271.948,-56.72
1271.963,-56.89
1271.978,-56.73
1271.993,-56.88
1272.008,-56.81
1272.023,-56.99
1272.038,-57.05
1272.053,-56.7
1272.068,-56.72
1272.083,-56.8
1272.098,-57.11
1272.113,-56.86
1272.128,-56.69
1272.143,-56.6
1272.158,-56.65
1272.173,-56.97
1272.188,-56.57
1272.203,-56.54
1272.218,-56.33
1272.233,-56.65
1272.248,-56.69
1272.263,-56.38
1272.278,-56.14
1272.293,-56.16
1272.308,-56.5
1272.323,-56.4
1272.338,-56.21
1272.353,-56.07
1272.368,-56.1
1272.383,-56.35
1272.398,-56.25
1272.413,-56.0
1272.428,-55.72
1272.443,-55.95
1272.458,-56.17
1272.473,-55.88
1272.488,-55.73
1272.503,-55.66
1272.518,-55.98
1272.533,-56.05
1272.548,-55.82
1272.563,-55.69
1272.578,-55.73
1272.593,-56.03
1272.608,-55.84
1272.623,-55.76
1272.638,-55.72
1272.653,-55.82
1272.668,-56.06
1272.683,-55.77
1272.698,-55.63
1272.713,-55.71
1272.728,-55.91
1272.743,-56.12
1272.758,-55.88
1272.773,-55.68
1272.788,-55.89
1272.803,-56.12
1272.818,-56.22
1272.833,-55.92
1272.848,-55.74
1272.863,-55.99
1272.878,-56.23
1272.893,-55.98
1272.908,-55.9
1272.923,-55.86
1272.938,-56.09
1272.953,-56.32
1272.968,-56.03
1272.983,-55.99
1272.998,-56.08
1273.013,-56.26
1273.028,-56.35
1273.043,-56.0
1273.058,-56.15
1273.073,-56.43
1273.088,-56.61
1273.103,-56.45
1273.118,-56.28
1273.133,-56.41
1273.148,-56.69
1273.163,-56.87
1273.178,-56.55
1273.193,-56.41
1273.208,-56.57
1273.223,-56.9
1273.238,-57.02
1273.253,-56.7
1273.268,-56.79
1273.283,-57.05
1273.298,-57.17
1273.313,-57.12
1273.328,-56.85
1273.343,-56.97
1273.358,-57.25
1273.373,-57.38
1273.388,-57.19
1273.403,-56.89
1273.418,-57.01
1273.433,-57.57
1273.448,-57.39
1273.463,-57.18
1273.478,-57.19
1273.493,-57.32
1273.508,-57.67
1273.523,-57.16
1273.538,-56.96
1273.553,-56.98
1273.568,-57.11
1273.583,-57.3
1273.598,-56.89
1273.613,-56.72
1273.628,-56.85
1273.643,-56.99
1273.658,-56.93
1273.673,-56.54
1273.688,-56.43
1273.703,-56.7
1273.718,-56.89
1273.733,-56.66
1273.748,-56.49
1273.763,-56.43
1273.778,-56.66
1273.793,-56.63
1273.808,-56.35
1273.823,-56.18
1273.838,-56.2
1273.853,-56.44
1273.868,-56.31
1273.883,-56.0
1273.898,-55.94
1273.913,-56.04
1273.928,-56.19
1273.943,-55.96
1273.958,-55.71
1273.973,-55.68
1273.988,-55.83
1274.003,-55.9
1274.018,-55.81
1274.033,-55.64
1274.048,-55.64
1274.063,-55.82
1274.078,-55.8
1274.093,-55.63
1274.108,-55.51
1274.123,-55.56
1274.138,-55.77
1274.153,-55.62
1274.168,-55.37
1274.183,-55.42
1274.198,-55.48
1274.213,-55.67
1274.228,-55.52
1274.243,-55.31
1274.258,-55.4
1274.273,-55.47
1274.288,-55.48
1274.303,-55.37
1274.318,-55.22
1274.333,-55.48
1274.348,-55.58
1274.363,-55.51
1274.378,-55.48
1274.393,-55.31
1274.408,-55.45
1274.423,-55.62
1274.438,-55.48
1274.453,-55.37
1274.468,-55.31
1274.483,-55.31
1274.498,-55.44
1274.513,-55.26
1274.528,-55.25
1274.543,-55.37
1274.558,-55.47
1274.573,-55.56
1274.588,-55.36
1274.603,-55.37
1274.618,-55.53
1274.633,-55.59
1274.648,-55.58
1274.663,-55.47
1274.678,-55.51
1274.693,-55.85
1274.708,-55.94
1274.723,-55.71
1274.738,-55.64
1274.753,-55.61
1274.768,-55.86
1274.783,-55.88
1274.798,-55.71
1274.813,-55.62
1274.828,-55.58
1274.843,-55.89
1274.858,-55.92
1274.873,-55.82
1274.888,-55.77
1274.903,-55.93
1274.918,-56.1
1274.933,-56.05
1274.948,-55.98
1274.963,-55.96
1274.978,-56.2
1274.993,-56.36
1275.008,-56.26
1275.023,-56.08
1275.038,-56.05
1275.053,-56.47
1275.068,-56.54
1275.083,-56.35
1275.098,-56.28
1275.113,-56.3
1275.128,-56.59
1275.143,-56.53
1275.158,-56.39
1275.173,-56.35
1275.188,-56.39
1275.203,-56.62
1275.218,-56.6
1275.233,-56.44
1275.248,-56.46
1275.263,-56.56
1275.278,-56.71
1275.293,-56.64
1275.308,-56.54
1275.323,-56.73
1275.338,-56.75
1275.353,-56.68
1275.368,-56.52
1275.383,-56.34
1275.398,-56.47
1275.413,-56.71
1275.428,-56.46
1275.443,-56.24
1275.458,-56.32
1275.473,-56.47
1275.488,-56.8
1275.503,-56.41
1275.518,-56.29
1275.533,-56.45
1275.548,-56.61
1275.563,-56.75
1275.578,-56.4
1275.593,-56.37
1275.608,-56.6
1275.623,-56.79
1275.638,-56.69
1275.653,-56.44
1275.668,-56.4
1275.683,-56.55
1275.698,-56.59
1275.713,-56.32
1275.728,-56.24
1275.743,-56.25
1275.758,-56.39
1275.773,-56.41
1275.788,-56.15
1275.803,-56.0
1275.818,-56.1
1275.833,-56.39
1275.848,-56.29
1275.863,-55.92
1275.878,-55.88
1275.893,-56.05
1275.908,-56.21
1275.923,-56.06
1275.938,-55.81
1275.953,-55.74
1275.968,-55.91
1275.983,-56.02
1275.998,-55.73
1276.013,-55.52
1276.028,-55.55
1276.043,-55.82
1276.058,-55.7
1276.073,-55.43
1276.088,-55.34
1276.103,-55.34
1276.118,-55.58
1276.133,-55.44
1276.148,-55.22
1276.163,-55.31
1276.178,-55.48
1276.193,-55.61
1276.208,-55.43
1276.223,-55.19
1276.238,-55.33
1276.253,-55.48
1276.268,-55.54
1276.283,-55.34
1276.298,-55.2
1276.313,-55.44
1276.328,-55.61
1276.343,-55.46
1276.358,-55.36
1276.373,-55.32
1276.388,-55.33
1276.403,-55.52
1276.418,-55.35
1276.433,-55.31
1276.448,-55.44
1276.463,-55.51
1276.478,-55.64
1276.493,-55.43
1276.508,-55.45
1276.523,-55.65
1276.538,-55.76
1276.553,-55.72
1276.568,-55.49
1276.583,-55.52
1276.598,-55.83
1276.613,-55.78
1276.628,-55.61
1276.643,-55.56
1276.658,-55.64
1276.673,-55.84
1276.688,-55.77
1276.703,-55.55
1276.718,-55.5
1276.733,-55.57
1276.748,-55.79
1276.763,-55.71
1276.778,-55.55
1276.793,-55.58
1276.808,-55.76
1276.823,-55.91
1276.838,-55.71
1276.853,-55.51
1276.868,-55.6
1276.883,-55.86
1276.898,-55.87
1276.913,-55.59
1276.928,-55.66
1276.943,-55.77
1276.958,-56.04
1276.973,-56.0
1276.988,-55.74
1277.003,-55.92
1277.018,-56.03
1277.033,-56.25
1277.048,-56.01
1277.063,-55.86
1277.078,-56.1
1277.093,-56.24
1277.108,-56.36
1277.123,-56.08
1277.138,-56.04
1277.153,-56.41
1277.168,-56.21
1277.183,-56.18
1277.198,-55.88
1277.214,-56.09
1277.228,-56.32
1277.243,-56.13
1277.258,-56.11
1277.273,-55.82
1277.288,-56.1
1277.303,-56.18
1277.318,-55.86
1277.333,-55.69
1277.349,-55.56
1277.364,-55.82
1277.378,-55.82
1277.393,-55.8
1277.408,-55.6
1277.423,-55.68
1277.438,-56.0
1277.453,-55.78
1277.469,-55.78
1277.484,-55.77
1277.499,-55.74
1277.514,-56.04
1277.528,-55.8
1277.543,-55.75
1277.558,-55.8
1277.573,-55.94
1277.589,-56.15
1277.604,-55.79
1277.619,-55.83
1277.634,-55.95
1277.649,-56.18
1277.663,-56.15
1277.678,-55.85
1277.693,-55.89
1277.708,-56.13
1277.724,-56.18
1277.739,-56.22
1277.754,-55.99
1277.769,-56.06
1277.784,-56.26
1277.799,-56.18
1277.813,-56.03
1277.828,-55.93
1277.844,-56.18
1277.859,-56.28
1277.874,-56.28
1277.889,-56.08
1277.904,-55.92
1277.919,-56.24
1277.934,-56.14
1277.948,-55.97
1277.964,-55.69
1277.979,-55.69
1277.994,-55.9
1278.009,-55.8
1278.024,-55.69
1278.039,-55.69
1278.054,-55.72
1278.069,-55.97
1278.084,-55.75
1278.099,-55.61
1278.114,-55.74
1278.129,-55.96
1278.144,-56.04
1278.159,-55.69
1278.174,-55.75
1278.189,-55.96
1278.204,-56.16
1278.219,-56.1
1278.234,-55.86
1278.249,-55.96
1278.264,-56.12
1278.279,-56.47
1278.294,-56.23
1278.309,-56.02
1278.324,-56.22
1278.339,-56.45
1278.354,-56.49
1278.369,-56.3
1278.384,-56.07
1278.399,-56.3
1278.414,-56.49
1278.429,-56.34
1278.444,-56.01
1278.459,-56.05
1278.474,-56.33
1278.489,-56.22
1278.504,-56.1
1278.519,-55.82
1278.534,-55.9
1278.549,-56.22
1278.564,-55.93
1278.579,-55.72
1278.594,-55.69
1278.609,-55.8
1278.624,-55.89
1278.639,-55.65
1278.654,-55.46
1278.669,-55.59
1278.684,-55.78
1278.699,-55.92
1278.714,-55.6
1278.729,-55.72
1278.744,-55.79
1278.759,-55.99
1278.774,-55.93
1278.789,-55.69
1278.804,-55.81
1278.819,-56.07
1278.834,-56.32
1278.849,-56.07
1278.864,-55.88
1278.879,-56.18
1278.894,-56.36
1278.909,-56.39
1278.924,-56.13
1278.939,-56.06
1278.954,-56.32
1278.969,-56.48
1278.984,-56.44
1278.999,-56.2
1279.014,-56.25
1279.029,-56.6
1279.044,-56.38
1279.059,-56.3
1279.074,-56.06
1279.089,-56.16
1279.104,-56.48
1279.119,-56.21
1279.134,-56.03
1279.149,-56.11
1279.164,-56.29
1279.179,-56.53
1279.194,-56.22
1279.209,-56.05
1279.224,-56.18
1279.239,-56.42
1279.254,-56.48
1279.269,-56.18
1279.284,-55.93
1279.299,-56.08
1279.314,-56.35
1279.329,-56.41
1279.344,-56.13
1279.359,-56.19
1279.374,-56.34
1279.389,-56.65
1279.404,-56.43
1279.419,-56.23
1279.434,-56.5
1279.449,-56.63
1279.464,-56.59
1279.479,-56.34
1279.494,-56.2
1279.509,-56.53
1279.524,-56.64
1279.539,-56.57
1279.554,-56.17
1279.569,-56.34
1279.584,-56.62
1279.599,-56.36
1279.614,-56.25
1279.629,-56.12
1279.644,-56.43
1279.659,-56.52
1279.674,-56.21
1279.689,-56.13
1279.704,-56.02
1279.719,-56.24
1279.734,-56.06
1279.749,-55.92
1279.764,-55.94
1279.779,-55.94
1279.794,-56.06
1279.809,-55.99
1279.824,-55.88
1279.839,-55.87
1279.854,-55.84
1279.869,-56.09
1279.884,-55.8
1279.899,-55.61
1279.914,-55.82
1279.929,-55.73
1279.944,-55.84
1279.959,-55.63
1279.974,-55.74
1279.989,-55.84
1280.004,-55.9
1280.019,-55.88
1280.034,-55.66
1280.049,-55.77
1280.064,-55.87
1280.079,-55.92
1280.094,-55.94
1280.109,-55.71
1280.124,-55.93
1280.139,-55.93
1280.154,-55.79
1280.169,-55.87
1280.184,-55.63
1280.199,-55.87
1280.214,-55.85
1280.229,-55.65
1280.244,-55.61
1280.259,-55.57
1280.274,-55.73
1280.289,-55.71
1280.304,-55.6
1280.319,-55.58
1280.334,-55.51
1280.349,-55.63
1280.364,-55.53
1280.379,-55.43
1280.394,-55.43
1280.409,-55.37
1280.424,-55.55
1280.439,-55.33
1280.454,-55.4
1280.469,-55.54
1280.484,-55.53
1280.499,-55.61
1280.514,-55.39
1280.529,-55.48
1280.544,-55.56
1280.559,-55.57
1280.574,-55.45
1280.589,-55.32
1280.604,-55.58
1280.619,-55.58
1280.634,-55.62
1280.649,-55.58
1280.664,-55.55
1280.679,-55.79
1280.694,-55.73
1280.709,-55.68
1280.724,-55.77
1280.739,-55.93
1280.754,-56.18
1280.769,-55.87
1280.784,-55.83
1280.799,-55.93
1280.814,-56.2
1280.829,-56.17
1280.844,-55.84
1280.859,-55.88
1280.874,-55.88
1280.889,-55.9
1280.904,-55.92
1280.919,-55.63
1280.934,-55.82
1280.949,-55.9
1280.964,-55.94
1280.979,-55.78
1280.994,-55.66
1281.009,-55.87
1281.024,-55.9
1281.039,-55.91
1281.054,-55.65
1281.069,-55.69
1281.084,-55.92
1281.099,-55.85
1281.114,-55.81
1281.129,-55.6
1281.144,-55.71
1281.159,-55.9
1281.174,-55.73
1281.189,-55.68
1281.204,-55.65
1281.219,-55.78
1281.234,-56.0
1281.249,-55.77
1281.264,-55.74
1281.279,-55.85
1281.294,-56.01
1281.309,-56.07
1281.324,-55.83
1281.339,-55.91
1281.354,-55.97
1281.369,-56.25
1281.384,-56.31
1281.399,-56.0
1281.414,-56.22
1281.429,-56.24
1281.444,-56.31
1281.459,-56.12
1281.474,-55.9
1281.489,-56.16
1281.504,-56.13
1281.519,-56.15
1281.534,-55.91
1281.549,-55.81
1281.564,-56.14
1281.579,-56.16
1281.594,-56.12
1281.609,-56.04
1281.624,-56.09
1281.639,-56.37
1281.654,-56.15
1281.669,-56.08
1281.684,-56.02
1281.699,-56.19
1281.714,-56.47
1281.729,-56.13
1281.744,-56.05
1281.759,-56.17
1281.774,-56.22
1281.789,-56.35
1281.804,-56.03
1281.819,-55.86
1281.834,-56.04
1281.849,-56.06
1281.864,-56.05
1281.879,-55.82
1281.894,-55.93
1281.909,-56.11
1281.924,-56.09
1281.939,-56.04
1281.954,-56.1
1281.969,-56.28
1281.984,-56.35
1281.999,-56.34
1282.014,-56.24
1282.029,-56.35
1282.044,-56.53
1282.059,-56.66
1282.074,-56.6
1282.089,-56.41
1282.104,-56.58
1282.119,-56.52
1282.134,-56.53
1282.149,-56.41
1282.164,-56.37
1282.179,-56.41
1282.194,-56.43
1282.209,-56.26
1282.224,-56.16
1282.239,-56.22
1282.254,-56.26
1282.269,-56.16
1282.284,-56.08
1282.299,-55.93
1282.314,-56.1
1282.329,-56.16
1282.344,-56.07
1282.359,-56.11
1282.374,-55.97
1282.389,-56.02
1282.404,-56.05
1282.419,-55.97
1282.434,-56.03
1282.449,-56.04
1282.464,-55.96
1282.479,-55.95
1282.494,-55.88
1282.509,-56.07
1282.524,-55.97
1282.539,-55.96
1282.554,-56.21
1282.569,-56.03
1282.584,-56.24
1282.599,-56.26
1282.614,-56.07
1282.629,-56.32
1282.644,-56.27
1282.659,-56.44
1282.674,-56.46
1282.689,-56.28
1282.704,-56.41
1282.719,-56.19
1282.734,-56.22
1282.749,-56.21
1282.764,-56.0
1282.779,-56.13
1282.794,-55.95
1282.809,-56.02
1282.824,-55.93
1282.839,-55.82
1282.854,-56.01
1282.869,-55.83
1282.884,-55.94
1282.899,-56.12
1282.914,-56.04
1282.929,-56.19
1282.944,-56.13
1282.959,-56.07
1282.974,-56.14
1282.989,-56.19
1283.004,-56.2
1283.019,-56.1
1283.034,-56.09
1283.049,-56.0
1283.064,-55.88
1283.079,-55.93
1283.094,-55.87
1283.109,-55.78
1283.124,-55.85
1283.139,-55.83
1283.154,-55.97
1283.169,-55.85
1283.184,-55.99
1283.199,-56.08
1283.214,-56.04
1283.229,-56.22
1283.244,-56.11
1283.259,-56.31
1283.274,-56.36
1283.289,-56.21
1283.304,-56.39
1283.319,-56.2
1283.334,-56.42
1283.349,-56.38
1283.364,-56.28
1283.379,-56.43
1283.394,-56.24
1283.409,-56.14
1283.424,-56.14
1283.439,-55.99
1283.454,-56.09
1283.469,-56.1
1283.484,-56.24
1283.499,-56.41
1283.514,-56.18
1283.529,-56.46
1283.544,-56.5
1283.559,-56.35
1283.574,-56.59
1283.589,-56.5
1283.604,-56.61
1283.619,-56.64
1283.634,-56.55
1283.649,-56.52
1283.664,-56.21
1283.679,-56.2
1283.694,-56.29
1283.709,-56.18
1283.724,-56.24
1283.739,-56.07
1283.754,-56.13
1283.769,-56.11
1283.784,-56.16
1283.799,-56.23
1283.814,-56.22
1283.829,-56.41
1283.844,-56.6
1283.859,-56.53
1283.874,-56.65
1283.889,-56.62
1283.904,-56.52
1283.919,-56.58
1283.934,-56.63
1283.949,-56.65
1283.964,-56.67
1283.979,-56.64
1283.994,-56.46
1284.009,-56.32
1284.024,-56.34
1284.039,-56.26
1284.054,-56.33
1284.069,-56.37
1284.084,-56.27
1284.099,-56.41
1284.114,-56.32
1284.129,-56.52
1284.144,-56.6
1284.159,-56.52
1284.174,-56.84
1284.189,-56.63
1284.204,-56.75
1284.219,-56.68
1284.234,-56.68
1284.249,-56.85
1284.264,-56.53
1284.279,-56.58
1284.294,-56.59
1284.309,-56.59
1284.324,-56.83
1284.339,-56.42
1284.354,-56.39
1284.369,-56.31
1284.384,-56.15
1284.399,-56.29
1284.414,-56.27
1284.429,-56.32
1284.444,-56.59
1284.459,-56.49
1284.474,-56.61
1284.489,-56.64
1284.504,-56.44
1284.519,-56.61
1284.534,-56.6
1284.549,-56.63
1284.564,-56.63
1284.579,-56.59
1284.594,-56.53
1284.609,-56.32
1284.624,-56.36
1284.639,-56.31
1284.654,-56.38
1284.669,-56.42
1284.684,-56.33
1284.699,-56.47
1284.714,-56.44
1284.729,-56.51
1284.744,-56.55
1284.759,-56.52
1284.774,-56.77
1284.789,-56.74
1284.804,-56.75
1284.819,-56.73
1284.834,-56.78
1284.849,-56.76
1284.864,-56.64
1284.879,-56.76
1284.894,-56.76
1284.909,-56.78
1284.924,-56.79
1284.939,-56.5
1284.954,-56.47
1284.969,-56.48
1284.984,-56.25
1284.999,-56.35
1285.014,-56.37
1285.029,-56.52
1285.044,-56.7
1285.059,-56.52
1285.074,-56.6
1285.089,-56.61
1285.104,-56.6
1285.119,-56.85
1285.134,-56.58
1285.149,-56.65
1285.164,-56.62
1285.179,-56.47
1285.194,-56.64
1285.209,-56.42
1285.224,-56.59
1285.24,-56.52
1285.255,-56.32
1285.269,-56.42
1285.284,-56.27
1285.299,-56.3
1285.314,-56.17
1285.329,-56.05
1285.344,-56.13
1285.359,-56.1
1285.375,-56.3
1285.39,-56.59
1285.404,-56.52
1285.419,-56.63
1285.434,-56.61
1285.449,-56.53
1285.464,-56.57
1285.479,-56.63
1285.495,-56.59
1285.51,-56.6
1285.525,-56.68
1285.54,-56.53
1285.554,-56.36
1285.569,-56.48
1285.584,-56.3
1285.599,-56.35
1285.615,-56.44
1285.63,-56.36
1285.645,-56.54
1285.66,-56.28
1285.675,-56.42
1285.689,-56.5
1285.704,-56.4
1285.719,-56.52
1285.734,-56.42
1285.75,-56.6
1285.765,-56.63
1285.78,-56.41
1285.795,-56.46
1285.81,-56.34
1285.825,-56.52
1285.839,-56.43
1285.854,-56.27
1285.87,-56.38
1285.885,-56.23
1285.9,-56.21
1285.915,-56.15
1285.93,-56.02
1285.945,-56.18
1285.96,-56.18
1285.974,-56.1
1285.99,-56.34
1286.005,-56.18
1286.02,-56.38
1286.035,-56.21
1286.05,-56.18
1286.065,-56.36
1286.08,-56.21
1286.095,-56.34
1286.11,-56.27
1286.125,-56.16
1286.14,-56.35
1286.155,-56.16
1286.17,-56.28
1286.185,-56.31
1286.2,-56.13
1286.215,-56.2
1286.23,-56.03
1286.245,-56.09
1286.26,-56.03
1286.275,-55.91
1286.29,-56.1
1286.305,-56.04
1286.32,-56.18
1286.335,-56.33
1286.35,-56.36
1286.365,-56.42
1286.38,-56.34
1286.395,-56.17
1286.41,-56.14
1286.425,-55.96
1286.44,-56.08
1286.455,-55.99
1286.47,-55.99
1286.485,-55.93
1286.5,-55.78
1286.515,-55.88
1286.53,-55.71
1286.545,-55.75
1286.56,-55.9
1286.575,-55.73
1286.59,-55.87
1286.605,-55.94
1286.62,-55.96
1286.635,-56.05
1286.65,-55.92
1286.665,-56.04
1286.68,-56.05
1286.695,-55.88
1286.71,-55.99
1286.725,-55.93
1286.74,-56.01
1286.755,-55.81
1286.77,-55.75
1286.785,-55.96
1286.8,-55.81
1286.815,-55.9
1286.83,-55.77
1286.845,-55.7
1286.86,-55.95
1286.875,-55.94
1286.89,-55.97
1286.905,-55.89
1286.92,-55.98
1286.935,-56.18
1286.95,-56.09
1286.965,-55.97
1286.98,-56.1
1286.995,-56.03
1287.01,-56.21
1287.025,-56.04
1287.04,-55.99
1287.055,-56.09
1287.07,-56.07
1287.085,-56.19
1287.1,-55.98
1287.115,-56.03
1287.13,-56.24
1287.145,-56.08
1287.16,-55.96
1287.175,-55.92
1287.19,-55.92
1287.205,-56.17
1287.22,-55.92
1287.235,-55.88
1287.25,-55.97
1287.265,-56.07
1287.28,-56.35
1287.295,-56.09
1287.31,-56.06
1287.325,-56.32
1287.34,-56.22
1287.355,-55.86
1287.37,-55.79
1287.385,-55.87
1287.4,-56.18
1287.415,-55.91
1287.43,-55.88
1287.445,-56.0
1287.46,-56.14
1287.475,-56.28
1287.49,-55.89
1287.505,-55.88
1287.52,-56.07
1287.535,-56.25
1287.55,-56.23
1287.565,-55.96
1287.58,-56.1
1287.595,-56.39
1287.61,-56.21
1287.625,-55.83
1287.64,-55.86
1287.655,-55.89
1287.67,-56.13
1287.685,-55.79
1287.7,-55.8
1287.715,-55.96
1287.73,-56.09
1287.745,-56.1
1287.76,-55.95
1287.775,-55.99
1287.79,-56.09
1287.805,-56.24
1287.82,-55.94
1287.835,-55.76
1287.85,-55.93
1287.865,-56.07
1287.88,-55.88
1287.895,-55.65
1287.91,-55.78
1287.925,-55.86
1287.94,-55.98
1287.955,-55.68
1287.97,-55.72
1287.985,-55.88
1288.0,-56.0
1288.015,-55.72
1288.03,-55.58
1288.045,-55.69
1288.06,-55.95
1288.075,-55.84
1288.09,-55.47
1288.105,-55.55
1288.12,-55.64
1288.135,-55.74
1288.15,-55.55
1288.165,-55.63
1288.18,-55.76
1288.195,-55.92
1288.21,-55.83
1288.225,-55.75
1288.24,-55.84
1288.255,-55.99
1288.27,-56.03
1288.285,-55.66
1288.3,-55.58
1288.315,-55.63
1288.33,-55.71
1288.345,-55.57
1288.36,-55.59
1288.375,-55.8
1288.39,-56.06
1288.405,-55.95
1288.42,-55.84
1288.435,-55.88
1288.45,-55.92
1288.465,-55.93
1288.48,-55.54
1288.495,-55.57
1288.51,-55.64
1288.525,-55.72
1288.54,-55.67
1288.555,-55.47
1288.57,-55.64
1288.585,-55.63
1288.6,-55.59
1288.615,-55.45
1288.63,-55.55
1288.645,-55.69
1288.66,-55.82
1288.675,-55.73
1288.69,-55.7
1288.705,-55.84
1288.72,-56.0
1288.735,-55.86
1288.75,-55.55
1288.765,-55.64
1288.78,-55.69
1288.795,-55.75
1288.81,-55.54
1288.825,-55.57
1288.84,-55.8
1288.855,-55.89
1288.87,-55.83
1288.885,-55.64
1288.9,-55.72
1288.915,-55.84
1288.93,-55.88
1288.945,-55.54
1288.96,-55.52
1288.975,-55.7
1288.99,-55.79
1289.005,-55.61
1289.02,-55.6
1289.035,-55.78
1289.05,-55.97
1289.065,-55.97
1289.08,-55.74
1289.095,-55.85
1289.11,-56.05
1289.125,-56.09
1289.14,-55.72
1289.155,-55.64
1289.17,-55.68
1289.185,-55.79
1289.2,-55.65
1289.215,-55.44
1289.23,-55.61
1289.245,-55.7
1289.26,-55.69
1289.275,-55.51
1289.29,-55.57
1289.305,-55.8
1289.32,-55.91
1289.335,-55.88
1289.35,-55.7
1289.365,-55.87
1289.38,-55.98
1289.395,-55.81
1289.41,-55.53
1289.425,-55.68
1289.44,-55.84
1289.455,-55.85
1289.47,-55.65
1289.485,-55.74
1289.5,-55.94
1289.515,-56.03
1289.53,-55.91
1289.545,-55.83
1289.56,-55.86
1289.575,-55.93
1289.59,-55.95
1289.605,-55.72
1289.62,-55.66
1289.635,-55.91
1289.65,-55.88
1289.665,-55.74
1289.68,-55.58
1289.695,-55.78
1289.71,-55.98
1289.725,-55.76
1289.74,-55.64
1289.755,-55.77
1289.77,-55.91
1289.785,-55.89
1289.8,-55.67
1289.815,-55.66
1289.83,-55.82
1289.845,-55.86
1289.86,-55.7
1289.875,-55.51
1289.89,-55.75
1289.905,-55.91
1289.92,-55.85
1289.935,-55.63
1289.95,-55.71
1289.965,-56.04
1289.98,-55.98
1289.995,-55.81
1290.01,-55.7
1290.025,-55.91
1290.04,-56.01
1290.055,-55.83
1290.07,-55.55
1290.085,-55.46
1290.1,-55.66
1290.115,-55.59
1290.13,-55.46
1290.145,-55.52
1290.16,-55.78
1290.175,-55.85
1290.19,-55.71
1290.205,-55.61
1290.22,-55.82
1290.235,-55.92
1290.25,-55.88
1290.265,-55.62
1290.28,-55.66
1290.295,-55.83
1290.31,-55.72
1290.325,-55.62
1290.34,-55.48
1290.355,-55.78
1290.37,-55.86
1290.385,-55.76
1290.4,-55.6
1290.415,-55.76
1290.43,-55.89
1290.445,-55.72
1290.46,-55.51
1290.475,-55.52
1290.49,-55.67
1290.505,-55.68
1290.52,-55.63
1290.535,-55.54
1290.55,-55.73
1290.565,-55.92
1290.58,-55.83
1290.595,-55.65
1290.61,-55.73
1290.625,-56.09
1290.64,-55.96
1290.655,-55.71
1290.67,-55.66
1290.685,-55.8
1290.7,-55.79
1290.715,-55.55
1290.73,-55.36
1290.745,-55.63
1290.76,-55.75
1290.775,-55.69
1290.79,-55.56
1290.805,-55.66
1290.82,-55.89
1290.835,-55.84
1290.85,-55.58
1290.865,-55.77
1290.88,-55.85
1290.895,-55.98
1290.91,-55.83
1290.925,-55.6
1290.94,-55.9
1290.955,-55.99
1290.97,-55.69
1290.985,-55.66
1291.0,-55.58
1291.015,-55.87
1291.03,-55.91
1291.045,-55.58
1291.06,-55.7
1291.075,-55.86
1291.09,-56.14
1291.105,-56.07
1291.12,-55.86
1291.135,-56.11
1291.15,-56.26
1291.165,-55.95
1291.18,-55.93
1291.195,-55.78
1291.21,-56.13
1291.225,-56.13
1291.24,-55.8
1291.255,-55.82
1291.27,-56.06
1291.285,-56.07
1291.3,-56.01
1291.315,-55.83
1291.33,-55.96
1291.345,-56.19
1291.36,-55.88
1291.375,-55.75
1291.39,-55.82
1291.405,-56.02
1291.42,-56.01
1291.435,-55.69
1291.45,-55.75
1291.465,-56.01
1291.48,-56.03
1291.495,-56.04
1291.51,-55.79
1291.525,-55.89
1291.54,-56.21
1291.555,-55.97
1291.57,-55.82
1291.585,-55.8
1291.6,-56.04
1291.615,-56.25
1291.63,-55.93
1291.645,-55.89
1291.66,-56.06
1291.675,-56.19
1291.69,-56.06
1291.705,-55.8
1291.72,-55.89
1291.735,-56.22
1291.75,-55.86
1291.765,-55.76
1291.78,-55.7
1291.795,-55.88
1291.81,-56.01
1291.825,-55.82
1291.84,-55.75
1291.855,-56.05
1291.87,-56.0
1291.885,-55.92
1291.9,-55.73
1291.915,-55.66
1291.93,-55.95
1291.945,-55.83
1291.96,-55.61
1291.975,-55.76
1291.99,-55.9
1292.005,-55.98
1292.02,-55.7
1292.035,-55.53
1292.05,-55.8
1292.065,-55.88
1292.08,-55.67
1292.095,-55.54
1292.11,-55.73
1292.125,-55.98
1292.14,-55.79
1292.155,-55.55
1292.17,-55.76
1292.185,-55.94
1292.2,-55.97
1292.215,-55.79
1292.23,-55.62
1292.245,-55.88
1292.26,-55.87
1292.275,-55.6
1292.29,-55.7
1292.305,-55.8
1292.32,-55.8
1292.335,-55.77
1292.35,-55.57
1292.365,-55.75
1292.38,-55.99
1292.395,-55.72
1292.41,-55.58
1292.425,-55.7
1292.44,-55.92
1292.455,-55.99
1292.47,-55.68
1292.485,-55.73
1292.5,-55.95
1292.515,-55.92
1292.53,-55.85
1292.545,-55.56
1292.56,-55.67
1292.575,-55.88
1292.59,-55.65
1292.605,-55.6
1292.62,-55.62
1292.635,-55.65
1292.65,-55.72
1292.665,-55.52
1292.68,-55.5
1292.695,-55.76
1292.71,-55.83
1292.725,-55.74
1292.74,-55.47
1292.755,-55.69
1292.77,-55.89
1292.785,-55.77
1292.8,-55.68
1292.815,-55.74
1292.83,-55.66
1292.845,-55.78
1292.86,-55.52
1292.875,-55.46
1292.89,-55.73
1292.905,-55.62
1292.92,-55.58
1292.935,-55.55
1292.95,-55.57
1292.965,-55.85
1292.98,-55.75
1292.995,-55.57
1293.01,-55.61
1293.025,-55.83
1293.04,-55.77
1293.055,-55.62
1293.07,-55.46
1293.085,-55.68
1293.1,-55.76
1293.115,-55.54
1293.13,-55.39
1293.145,-55.53
1293.16,-55.8
1293.175,-55.68
1293.19,-55.44
1293.205,-55.54
1293.22,-55.64
1293.235,-55.63
1293.25,-55.44
1293.266,-55.28
1293.281,-55.58
1293.295,-55.57
1293.31,-55.33
1293.325,-55.41
1293.34,-55.64
1293.355,-55.64
1293.37,-55.61
1293.385,-55.38
1293.401,-55.52
1293.416,-55.75
1293.43,-55.54
1293.445,-55.41
1293.46,-55.5
1293.475,-55.7
1293.49,-55.81
1293.505,-55.45
1293.521,-55.49
1293.536,-55.75
1293.551,-55.81
1293.566,-55.7
1293.58,-55.44
1293.595,-55.67
1293.61,-55.82
1293.625,-55.51
1293.641,-55.42
1293.656,-55.57
1293.671,-55.65
1293.686,-55.76
1293.701,-55.42
1293.715,-55.45
1293.73,-55.68
1293.745,-55.82
1293.76,-55.63
1293.776,-55.63
1293.791,-55.6
1293.806,-55.82
1293.821,-55.59
1293.836,-55.57
1293.851,-55.61
1293.865,-55.86
1293.88,-55.82
1293.896,-55.65
1293.911,-55.58
1293.926,-55.75
1293.941,-55.85
1293.956,-55.69
1293.971,-55.42
1293.986,-55.6
1294.001,-55.86
1294.016,-55.83
1294.031,-55.54
1294.046,-55.68
1294.061,-55.96
1294.076,-56.01
1294.091,-55.85
1294.106,-55.7
1294.121,-55.89
1294.136,-56.08
1294.151,-55.89
1294.166,-55.55
1294.181,-55.75
1294.196,-55.95
1294.211,-56.06
1294.226,-55.78
1294.241,-55.8
1294.256,-56.08
1294.271,-56.26
1294.286,-55.98
1294.301,-55.9
1294.316,-56.04
1294.331,-56.26
1294.346,-55.98
1294.361,-55.92
1294.376,-56.14
1294.391,-56.33
1294.406,-56.48
1294.421,-56.14
1294.436,-56.17
1294.451,-56.47
1294.466,-56.32
1294.481,-56.02
1294.496,-56.01
1294.511,-56.13
1294.526,-56.34
1294.541,-56.04
1294.556,-55.85
1294.571,-56.09
1294.586,-56.29
1294.601,-56.2
1294.616,-55.96
1294.631,-55.98
1294.646,-56.31
1294.661,-56.16
1294.676,-56.04
1294.691,-56.02
1294.706,-56.43
1294.721,-56.65
1294.736,-56.4
1294.751,-56.19
1294.766,-56.45
1294.781,-56.42
1294.796,-56.34
1294.811,-56.17
1294.826,-56.1
1294.841,-56.3
1294.856,-56.29
1294.871,-56.0
1294.886,-56.11
1294.901,-56.3
1294.916,-56.3
1294.931,-56.31
1294.946,-55.98
1294.961,-56.05
1294.976,-56.41
1294.991,-56.23
1295.006,-55.97
1295.021,-56.07
1295.036,-56.22
1295.051,-56.36
1295.066,-56.02
1295.081,-56.04
1295.096,-56.21
1295.111,-56.25
1295.126,-56.03
1295.141,-55.72
1295.156,-55.74
1295.171,-56.14
1295.186,-55.9
1295.201,-55.76
1295.216,-55.75
1295.231,-55.84
1295.246,-56.13
1295.261,-55.87
1295.276,-55.75
1295.291,-56.09
1295.306,-56.15
1295.321,-56.02
1295.336,-55.69
1295.351,-55.7
1295.366,-56.07
1295.381,-55.84
1295.396,-55.66
1295.411,-55.59
1295.426,-55.73
1295.441,-55.92
1295.456,-55.64
1295.471,-55.51
1295.486,-55.82
1295.501,-55.75
1295.516,-55.67
1295.531,-55.46
1295.546,-55.63
1295.561,-55.98
1295.576,-55.76
1295.591,-55.59
1295.606,-55.71
1295.621,-55.8
1295.636,-55.76
1295.651,-55.68
1295.666,-55.51
1295.681,-55.82
1295.696,-55.77
1295.711,-55.45
1295.726,-55.36
1295.741,-55.5
1295.756,-55.56
1295.771,-55.44
1295.786,-55.28
1295.801,-55.39
1295.816,-55.5
1295.831,-55.51
1295.846,-55.45
1295.861,-55.55
1295.876,-55.63
1295.891,-55.49
1295.906,-55.22
1295.921,-55.28
1295.936,-55.42
1295.951,-55.53
1295.966,-55.53
1295.981,-55.5
1295.996,-55.48
1296.011,-55.73
1296.026,-55.47
1296.041,-55.39
1296.056,-55.47
1296.071,-55.53
1296.086,-55.44
1296.101,-55.33
1296.116,-55.48
1296.131,-55.71
1296.146,-55.79
1296.161,-55.81
1296.176,-55.7
1296.191,-55.87
1296.206,-55.8
1296.221,-55.63
1296.236,-55.85
1296.251,-55.73
1296.266,-55.8
1296.281,-55.82
1296.296,-55.61
1296.311,-55.67
1296.326,-55.68
1296.341,-55.81
1296.356,-56.07
1296.371,-55.89
1296.386,-55.88
1296.401,-55.93
1296.416,-55.85
1296.431,-55.97
1296.446,-55.81
1296.461,-55.76
1296.476,-55.72
1296.491,-55.64
1296.506,-55.8
1296.521,-55.74
1296.536,-55.81
1296.551,-55.83
1296.566,-55.68
1296.581,-55.53
1296.596,-55.6
1296.611,-55.49
1296.626,-55.59
1296.641,-55.63
1296.656,-55.56
1296.671,-55.74
1296.686,-55.66
1296.701,-55.54
1296.716,-55.68
1296.731,-55.56
1296.746,-55.49
1296.761,-55.56
1296.776,-55.47
1296.791,-55.55
1296.806,-55.8
1296.821,-55.61
1296.836,-55.75
1296.851,-55.66
1296.866,-55.57
1296.881,-55.64
1296.896,-55.69
1296.911,-55.77
1296.926,-55.95
1296.941,-55.76
1296.956,-55.91
1296.971,-55.89
1296.986,-55.73
1297.001,-55.97
1297.016,-55.76
1297.031,-55.74
1297.046,-55.92
1297.061,-55.83
1297.076,-56.01
1297.091,-56.02
1297.106,-55.96
1297.121,-55.92
1297.136,-55.87
1297.151,-55.75
1297.166,-55.86
1297.181,-55.76
1297.196,-55.71
1297.211,-55.85
1297.226,-55.85
1297.241,-55.71
1297.256,-55.82
1297.271,-55.59
1297.286,-55.6
1297.301,-55.54
1297.316,-55.47
1297.331,-55.62
1297.346,-55.55
1297.361,-55.39
1297.376,-55.52
1297.391,-55.39
1297.406,-55.51
1297.421,-55.5
1297.436,-55.3
1297.451,-55.43
1297.466,-55.42
1297.481,-55.51
1297.496,-55.69
1297.511,-55.56
1297.526,-55.72
1297.541,-55.74
1297.556,-55.58
1297.571,-55.61
1297.586,-55.8
1297.601,-55.74
1297.616,-55.89
1297.631,-55.88
1297.646,-56.03
1297.661,-55.99
1297.676,-55.95
1297.691,-56.0
1297.706,-56.12
1297.721,-55.97
1297.736,-56.08
1297.751,-55.95
1297.766,-56.03
1297.781,-56.17
1297.796,-56.13
1297.811,-55.88
1297.826,-56.09
1297.841,-55.94
1297.856,-56.04
1297.871,-55.98
1297.886,-55.91
1297.901,-56.1
1297.916,-56.06
1297.931,-55.88
1297.946,-56.07
1297.961,-55.84
1297.976,-55.78
1297.991,-55.83
1298.006,-55.63
1298.021,-55.76
1298.036,-55.82
1298.051,-55.7
1298.066,-55.81
1298.081,-55.61
1298.096,-55.75
1298.111,-55.75
1298.126,-55.68
1298.141,-55.69
1298.156,-55.78
1298.171,-55.63
1298.186,-55.74
1298.201,-55.8
1298.216,-55.84
1298.231,-55.89
1298.246,-55.84
1298.261,-55.8
1298.276,-55.94
1298.291,-55.8
1298.306,-55.93
1298.321,-56.08
1298.336,-56.06
1298.351,-56.25
1298.366,-56.19
1298.381,-55.95
1298.396,-56.16
1298.411,-56.03
1298.426,-55.99
1298.441,-56.16
1298.456,-55.97
1298.471,-56.19
1298.486,-56.21
1298.501,-56.12
1298.516,-56.16
1298.531,-56.0
1298.546,-55.92
1298.561,-55.99
1298.576,-55.87
1298.591,-55.92
1298.606,-56.01
1298.621,-55.89
1298.636,-55.87
1298.651,-55.76
1298.666,-55.71
1298.681,-55.78
1298.696,-55.52
1298.711,-55.51
1298.726,-55.64
1298.741,-55.59
1298.756,-55.69
1298.771,-55.71
1298.786,-55.62
1298.801,-55.76
1298.816,-55.75
1298.831,-55.68
1298.846,-55.85
1298.861,-55.81
1298.876,-55.84
1298.891,-55.92
1298.906,-55.72
1298.921,-55.9
1298.936,-55.87
1298.951,-55.73
1298.966,-55.89
1298.981,-55.91
1298.996,-55.92
1299.011,-56.1
1299.026,-55.97
1299.041,-56.1
1299.056,-56.14
1299.071,-55.96
1299.086,-56.09
1299.101,-55.95
1299.116,-55.92
1299.131,-56.05
1299.146,-55.81
1299.161,-55.92
1299.176,-56.02
1299.191,-55.94
1299.206,-55.91
1299.221,-55.86
1299.236,-55.74
1299.251,-55.8
1299.266,-55.61
1299.281,-55.58
1299.296,-55.82
1299.311,-55.84
1299.326,-55.75
1299.341,-55.84
1299.356,-55.65
1299.371,-55.8
1299.386,-55.83
1299.401,-55.75
1299.416,-55.97
1299.431,-55.97
1299.446,-55.85
1299.461,-55.99
1299.476,-55.86
1299.491,-56.06
1299.506,-55.94
1299.521,-55.74
1299.536,-55.86
1299.551,-55.93
1299.566,-55.83
1299.581,-56.02
1299.596,-55.98
1299.611,-55.84
1299.626,-55.99
1299.641,-55.84
1299.656,-55.92
1299.671,-56.09
1299.686,-55.95
1299.701,-56.06
1299.716,-56.21
1299.731,-56.12
1299.746,-56.29
1299.761,-56.13
1299.776,-56.06
1299.791,-56.23
1299.806,-56.09
1299.821,-56.14
1299.836,-56.2
1299.851,-56.09
1299.866,-56.03
1299.881,-55.97
1299.896,-55.81
1299.911,-56.0
1299.926,-55.86
1299.941,-55.87
1299.956,-55.95
1299.971,-55.96
1299.986,-55.89
1300.001,-55.91
1300.016,-55.76
1300.031,-55.87
1300.046,-55.84
1300.061,-55.77
1300.076,-55.93
1300.091,-55.98
1300.106,-55.87
1300.121,-55.85
1300.136,-55.9
1300.151,-56.0
1300.166,-55.95
1300.181,-55.79
1300.196,-55.9
1300.211,-56.07
1300.226,-55.92
1300.241,-55.83
1300.256,-55.87
1300.271,-55.97
1300.286,-56.16
1300.301,-55.89
1300.316,-55.86
1300.331,-56.04
1300.346,-55.96
1300.361,-55.84
1300.376,-55.75
1300.391,-55.98
1300.406,-56.1
1300.421,-55.89
1300.436,-55.82
1300.451,-55.9
1300.466,-56.03
1300.481,-55.88
1300.496,-55.59
1300.511,-55.79
1300.526,-55.98
1300.541,-55.98
1300.556,-55.79
1300.571,-56.04
1300.586,-56.15
1300.601,-55.93
1300.616,-55.87
1300.631,-56.01
1300.646,-56.17
1300.661,-56.3
1300.676,-56.02
1300.691,-56.07
1300.706,-56.31
1300.721,-56.28
1300.736,-56.1
1300.751,-55.92
1300.766,-56.04
1300.781,-56.13
1300.796,-55.88
1300.811,-55.73
1300.826,-55.89
1300.841,-56.0
1300.856,-55.76
1300.871,-55.73
1300.886,-55.76
1300.901,-56.01
1300.916,-55.97
1300.931,-55.74
1300.946,-55.83
1300.961,-56.1
1300.976,-55.89
1300.991,-55.79
1301.006,-55.78
1301.021,-55.91
1301.036,-56.03
1301.051,-55.79
1301.066,-55.73
1301.081,-55.85
1301.096,-55.71
1301.111,-55.8
1301.126,-55.76
1301.141,-55.64
1301.156,-55.88
1301.171,-55.78
1301.186,-55.75
1301.201,-55.84
1301.216,-55.83
1301.231,-55.87
1301.246,-55.93
1301.261,-55.87
1301.276,-56.09
1301.292,-55.93
1301.307,-55.82
1301.321,-56.01
1301.336,-56.16
1301.351,-56.09
1301.366,-56.23
1301.381,-56.19
1301.396,-56.06
1301.411,-56.15
1301.427,-55.91
1301.442,-55.83
1301.457,-55.89
1301.471,-55.73
1301.486,-55.86
1301.501,-55.96
1301.516,-55.8
1301.531,-55.87
1301.547,-55.83
1301.562,-55.71
1301.577,-55.71
1301.592,-55.52
1301.606,-55.63
1301.621,-55.86
1301.636,-55.64
1301.651,-55.74
1301.667,-55.69
1301.682,-55.6
1301.697,-55.58
1301.712,-55.47
1301.727,-55.41
1301.742,-55.56
1301.756,-55.5
1301.771,-55.57
1301.786,-55.66
1301.802,-55.66
1301.817,-55.76
1301.832,-55.82
1301.847,-55.64
1301.862,-55.88
1301.877,-55.86
1301.891,-55.96
1301.906,-56.05
1301.922,-56.0
1301.937,-55.94
1301.952,-55.99
1301.967,-56.07
1301.982,-56.03
1301.997,-56.12
1302.012,-56.04
1302.027,-56.14
1302.042,-56.12
1302.057,-56.03
1302.072,-56.02
1302.087,-56.18
1302.102,-56.18
1302.117,-56.13
1302.132,-56.05
1302.147,-56.14
1302.162,-56.18
1302.177,-56.1
1302.192,-56.06
1302.207,-56.15
1302.222,-56.22
1302.237,-56.17
1302.252,-56.16
1302.267,-56.21
1302.282,-56.21
1302.297,-56.15
1302.312,-56.22
1302.327,-56.18
1302.342,-56.16
1302.357,-55.99
1302.372,-56.01
1302.387,-55.98
1302.402,-56.08
1302.417,-56.03
1302.432,-55.89
1302.447,-55.95
1302.462,-56.24
1302.477,-56.32
1302.492,-56.03
1302.507,-55.95
1302.522,-56.12
1302.537,-56.31
1302.552,-56.05
1302.567,-56.06
1302.582,-56.24
1302.597,-56.45
1302.612,-56.24
1302.627,-56.06
1302.642,-56.09
1302.657,-56.22
1302.672,-55.95
1302.687,-55.83
1302.702,-56.04
1302.717,-56.32
1302.732,-56.14
1302.747,-55.95
1302.762,-55.91
1302.777,-56.12
1302.792,-56.15
1302.807,-55.94
1302.822,-55.94
1302.837,-56.1
1302.852,-56.17
1302.867,-55.86
1302.882,-55.92
1302.897,-55.99
1302.912,-56.07
1302.927,-55.85
1302.942,-55.82
1302.957,-56.01
1302.972,-55.91
1302.987,-55.65
1303.002,-55.47
1303.017,-55.77
1303.032,-55.85
1303.047,-55.82
1303.062,-55.7
1303.077,-55.88
1303.092,-55.91
1303.107,-55.81
1303.122,-55.54
1303.137,-55.7
1303.152,-55.85
1303.167,-55.89
1303.182,-55.72
1303.197,-55.75
1303.212,-55.96
1303.227,-55.81
1303.242,-55.51
1303.257,-55.53
1303.272,-55.8
1303.287,-55.9
1303.302,-55.72
1303.317,-55.65
1303.332,-55.85
1303.347,-55.83
1303.362,-55.71
1303.377,-55.5
1303.392,-55.75
1303.407,-55.72
1303.422,-55.57
1303.437,-55.54
1303.452,-55.73
1303.467,-55.77
1303.482,-55.66
1303.497,-55.66
1303.512,-55.96
1303.527,-56.01
1303.542,-55.68
1303.557,-55.52
1303.572,-55.64
1303.587,-55.68
1303.602,-55.56
1303.617,-55.49
1303.632,-55.49
1303.647,-55.75
1303.662,-55.58
1303.677,-55.5
1303.692,-55.83
1303.707,-55.94
1303.722,-55.74
1303.737,-55.7
1303.752,-55.73
1303.767,-56.03
1303.782,-55.94
1303.797,-55.62
1303.812,-55.85
1303.827,-56.06
1303.842,-55.74
1303.857,-55.61
1303.872,-55.65
1303.887,-55.8
1303.902,-55.82
1303.917,-55.5
1303.932,-55.53
1303.947,-55.82
1303.962,-55.65
1303.977,-55.5
1303.992,-55.73
1304.007,-56.0
1304.022,-55.89
1304.037,-55.79
1304.052,-55.68
1304.067,-55.94
1304.082,-55.92
1304.097,-55.69
1304.112,-55.78
1304.127,-56.02
1304.142,-55.85
1304.157,-55.82
1304.172,-55.6
1304.187,-55.75
1304.202,-55.87
1304.217,-55.61
1304.232,-55.54
1304.247,-55.86
1304.262,-55.75
1304.277,-55.54
1304.292,-55.42
1304.307,-55.51
1304.322,-55.75
1304.337,-55.61
1304.352,-55.41
1304.367,-55.66
1304.382,-55.78
1304.397,-55.56
1304.412,-55.63
1304.427,-55.78
1304.442,-55.82
1304.457,-55.83
1304.472,-55.54
1304.487,-55.57
1304.502,-55.75
1304.517,-55.5
1304.532,-55.35
1304.547,-55.57
1304.562,-55.69
1304.577,-55.65
1304.592,-55.55
1304.607,-55.46
1304.622,-55.73
1304.637,-55.75
1304.652,-55.5
1304.667,-55.66
1304.682,-55.87
1304.697,-55.65
1304.712,-55.52
1304.727,-55.66
1304.742,-55.71
1304.757,-55.82
1304.772,-55.57
1304.787,-55.56
1304.802,-55.91
1304.817,-55.69
1304.832,-55.44
1304.847,-55.68
1304.862,-55.84
1304.877,-55.77
1304.892,-55.62
1304.907,-55.69
1304.922,-55.86
1304.937,-55.87
1304.952,-55.62
1304.967,-55.8
1304.982,-56.07
1304.997,-55.87
1305.012,-55.7
1305.027,-55.79
1305.042,-55.91
1305.057,-55.82
1305.072,-55.6
1305.087,-55.58
1305.102,-55.83
1305.117,-55.82
1305.132,-55.53
1305.147,-55.73
1305.162,-55.9
1305.177,-55.84
1305.192,-55.66
1305.207,-55.75
1305.222,-55.9
1305.237,-56.07
1305.252,-55.81
1305.267,-55.84
1305.282,-56.08
1305.297,-56.1
1305.312,-55.99
1305.327,-55.89
1305.342,-56.12
1305.357,-56.17
1305.372,-55.94
1305.387,-55.78
1305.402,-55.98
1305.417,-56.12
1305.432,-55.74
1305.447,-55.76
1305.462,-55.9
1305.477,-55.97
1305.492,-55.86
1305.507,-55.79
1305.522,-55.85
1305.537,-56.2
1305.552,-55.95
1305.567,-55.75
1305.582,-56.06
1305.597,-56.15
1305.612,-56.14
1305.627,-56.0
1305.642,-55.9
1305.657,-56.28
1305.672,-56.18
1305.687,-55.89
1305.702,-55.97
1305.717,-56.2
1305.732,-55.94
1305.747,-55.82
1305.762,-55.87
1305.777,-55.98
1305.792,-56.14
1305.807,-55.82
1305.822,-55.8
1305.837,-56.11
1305.852,-56.01
1305.867,-55.72
1305.882,-55.85
1305.897,-56.11
1305.912,-56.09
1305.927,-55.93
1305.942,-55.77
1305.957,-56.0
1305.972,-56.04
1305.987,-55.76
1306.002,-55.8
1306.017,-56.13
1306.032,-55.97
1306.047,-55.92
1306.062,-55.84
1306.077,-55.96
1306.092,-56.22
1306.107,-55.93
1306.122,-55.84
1306.137,-56.15
1306.152,-56.15
1306.167,-56.07
1306.182,-55.98
1306.197,-56.01
1306.212,-56.08
1306.227,-55.92
1306.242,-55.74
1306.257,-55.8
1306.272,-56.08
1306.287,-55.84
1306.302,-55.8
1306.317,-55.77
1306.332,-55.8
1306.347,-55.66
1306.362,-55.67
1306.377,-55.68
1306.392,-56.01
1306.407,-55.91
1306.422,-55.56
1306.437,-55.56
1306.452,-55.71
1306.467,-55.71
1306.482,-55.66
1306.497,-55.72
1306.512,-55.84
1306.527,-55.92
1306.542,-55.56
1306.557,-55.58
1306.572,-55.74
1306.587,-55.8
1306.602,-55.67
1306.617,-55.68
1306.632,-55.76
1306.647,-56.03
1306.662,-55.83
1306.677,-55.66
1306.692,-55.92
1306.707,-56.08
1306.722,-56.04
1306.737,-55.93
1306.752,-55.94
1306.767,-56.07
1306.782,-56.11
1306.797,-55.81
1306.812,-55.9
1306.827,-56.23
1306.842,-56.06
1306.857,-55.91
1306.872,-55.94
1306.887,-56.09
1306.902,-56.14
1306.917,-55.88
1306.932,-55.85
1306.947,-56.2
1306.962,-56.2
1306.977,-55.97
1306.992,-56.0
1307.007,-56.29
1307.022,-56.21
1307.037,-56.09
1307.052,-55.86
1307.067,-56.02
1307.082,-56.24
1307.097,-55.89
1307.112,-55.88
1307.127,-56.15
1307.142,-56.07
1307.157,-55.87
1307.172,-55.65
1307.187,-55.74
1307.202,-56.11
1307.217,-55.89
1307.232,-55.86
1307.247,-56.06
1307.262,-56.32
1307.277,-56.0
1307.292,-56.02
1307.307,-56.19
1307.322,-56.34
1307.337,-56.47
1307.352,-56.17
1307.367,-56.17
1307.382,-56.48
1307.397,-56.12
1307.412,-55.95
1307.427,-56.16
1307.442,-56.5
1307.457,-56.33
1307.472,-56.12
1307.487,-56.11
1307.502,-56.35
1307.517,-56.31
1307.532,-56.13
1307.547,-56.24
1307.562,-56.51
1307.577,-56.48
1307.592,-56.18
1307.607,-56.26
1307.622,-56.48
1307.637,-56.28
1307.652,-56.11
1307.667,-55.93
1307.682,-56.27
1307.697,-56.21
1307.712,-55.98
1307.727,-55.85
1307.742,-56.06
1307.757,-56.12
1307.772,-55.9
1307.787,-55.96
1307.802,-56.13
1307.817,-56.06
1307.832,-55.85
1307.847,-55.74
1307.862,-56.02
1307.877,-56.14
1307.892,-56.01
1307.907,-55.84
1307.922,-56.04
1307.937,-56.1
1307.952,-55.93
1307.967,-55.95
1307.982,-56.06
1307.997,-56.26
1308.012,-56.01
1308.027,-55.84
1308.042,-56.01
1308.057,-56.18
1308.072,-56.12
1308.087,-56.02
1308.102,-56.19
1308.117,-56.25
1308.132,-56.0
1308.147,-56.0
1308.162,-56.17
1308.177,-56.33
1308.192,-56.32
1308.207,-56.19
1308.222,-56.33
1308.237,-56.31
1308.252,-56.13
1308.267,-56.03
1308.282,-56.19
1308.297,-56.2
1308.312,-55.98
1308.327,-56.05
1308.342,-55.95
1308.357,-56.18
1308.372,-56.11
1308.387,-55.9
1308.402,-56.2
1308.417,-56.32
1308.432,-56.16
1308.447,-56.01
1308.462,-56.35
1308.477,-56.27
1308.492,-56.29
1308.507,-56.41
1308.522,-56.16
1308.537,-56.28
1308.552,-56.28
1308.567,-56.04
1308.582,-56.23
1308.597,-56.23
1308.612,-56.06
1308.627,-55.96
1308.642,-56.2
1308.657,-56.05
1308.672,-56.16
1308.687,-55.97
1308.702,-56.05
1308.717,-56.24
1308.732,-56.12
1308.747,-55.9
1308.762,-56.16
1308.777,-56.25
1308.792,-56.0
1308.807,-56.06
1308.822,-56.28
1308.837,-56.49
1308.852,-56.47
1308.867,-56.19
1308.882,-56.37
1308.897,-56.52
1308.912,-56.35
1308.927,-56.17
1308.942,-56.46
1308.957,-56.4
1308.972,-56.14
1308.987,-56.04
1309.002,-56.15
1309.017,-56.27
1309.032,-56.17
1309.047,-56.03
1309.062,-56.19
1309.077,-56.29
1309.092,-56.14
1309.107,-56.11
1309.122,-56.34
1309.137,-56.59
1309.152,-56.39
1309.167,-56.19
1309.182,-56.28
1309.198,-56.45
1309.212,-56.25
1309.227,-56.09
1309.242,-56.37
1309.257,-56.39
1309.272,-56.27
1309.287,-55.99
1309.302,-56.14
1309.318,-56.44
1309.333,-56.25
1309.347,-56.07
1309.362,-56.05
1309.377,-56.24
1309.392,-56.14
1309.407,-55.93
1309.422,-56.0
1309.438,-56.32
1309.453,-56.28
1309.468,-55.87
1309.483,-56.08
1309.497,-56.36
1309.512,-56.0
1309.527,-55.92
1309.542,-56.04
1309.557,-56.12
1309.573,-56.09
1309.588,-55.93
1309.603,-56.02
1309.618,-56.3
1309.632,-56.27
1309.647,-55.96
1309.662,-56.13
1309.677,-56.37
1309.693,-56.38
1309.708,-56.18
1309.723,-56.2
1309.738,-56.33
1309.753,-56.36
1309.768,-56.18
1309.782,-56.11
1309.797,-56.4
1309.813,-56.21
1309.828,-56.06
1309.843,-56.0
1309.858,-56.06
1309.873,-56.02
1309.888,-55.87
1309.903,-55.98
1309.917,-56.06
1309.932,-56.04
1309.948,-55.93
1309.963,-56.06
1309.978,-56.35
1309.993,-56.32
1310.008,-56.1
1310.023,-56.16
1310.038,-56.21
1310.053,-56.22
1310.068,-55.99
1310.083,-56.12
1310.098,-56.22
1310.113,-56.0
1310.128,-55.82
1310.143,-55.65
1310.158,-55.87
1310.173,-55.86
1310.188,-55.67
1310.203,-55.66
1310.218,-55.87
1310.233,-55.79
1310.248,-55.63
1310.263,-55.88
1310.278,-55.87
1310.293,-55.85
1310.308,-55.78
1310.323,-55.74
1310.338,-55.83
1310.353,-55.83
1310.368,-55.76
1310.383,-55.88
1310.398,-55.96
1310.413,-55.88
1310.428,-55.86
1310.443,-55.79
1310.458,-55.71
1310.473,-55.82
1310.488,-55.68
1310.503,-55.68
1310.518,-55.74
1310.533,-55.79
1310.548,-55.67
1310.563,-55.81
1310.578,-55.76
1310.593,-55.62
1310.608,-55.68
1310.623,-55.63
1310.638,-55.55
1310.653,-55.59
1310.668,-55.51
1310.683,-55.51
1310.698,-55.63
1310.713,-55.56
1310.728,-55.47
1310.743,-55.58
1310.758,-55.56
1310.773,-55.39
1310.788,-55.51
1310.803,-55.51
1310.818,-55.35
1310.833,-55.47
1310.848,-55.34
1310.863,-55.44
1310.878,-55.62
1310.893,-55.58
1310.908,-55.42
1310.923,-55.61
1310.938,-55.67
1310.953,-55.54
1310.968,-55.64
1310.983,-55.52
1310.998,-55.51
1311.013,-55.58
1311.028,-55.39
1311.043,-55.53
1311.058,-55.57
1311.073,-55.53
1311.088,-55.37
1311.103,-55.47
1311.118,-55.49
1311.133,-55.49
1311.148,-55.6
1311.163,-55.5
1311.178,-55.48
1311.193,-55.54
1311.208,-55.45
1311.223,-55.46
1311.238,-55.59
1311.253,-55.47
1311.268,-55.32
1311.283,-55.49
1311.298,-55.52
1311.313,-55.54
1311.328,-55.5
1311.343,-55.48
1311.358,-55.43
1311.373,-55.42
1311.388,-55.17
1311.403,-55.36
1311.418,-55.44
1311.433,-55.29
1311.448,-55.22
1311.463,-55.34
1311.478,-55.32
1311.493,-55.36
1311.508,-55.4
1311.523,-55.33
1311.538,-55.3
1311.553,-55.33
1311.568,-55.11
1311.583,-55.34
1311.598,-55.44
1311.613,-55.36
1311.628,-55.33
1311.643,-55.52
1311.658,-55.44
1311.673,-55.48
1311.688,-55.55
1311.703,-55.42
1311.718,-55.41
1311.733,-55.4
1311.748,-55.14
1311.763,-55.31
1311.778,-55.38
1311.793,-55.33
1311.808,-55.25
1311.823,-55.46
1311.838,-55.32
1311.853,-55.34
1311.868,-55.42
1311.883,-55.41
1311.898,-55.35
1311.913,-55.34
1311.928,-55.14
1311.943,-55.26
1311.958,-55.32
1311.973,-55.13
1311.988,-55.09
1312.003,-55.2
1312.018,-55.11
1312.033,-55.12
1312.048,-55.12
1312.063,-55.1
1312.078,-55.07
1312.093,-55.05
1312.108,-54.93
1312.123,-55.12
1312.138,-55.16
1312.153,-55.04
1312.168,-55.04
1312.183,-55.21
1312.198,-55.12
1312.213,-55.21
1312.228,-55.27
1312.243,-55.28
1312.258,-55.48
1312.273,-55.37
1312.288,-55.23
1312.303,-55.34
1312.318,-55.35
1312.333,-55.26
1312.348,-55.22
1312.363,-55.34
1312.378,-55.27
1312.393,-55.38
1312.408,-55.36
1312.423,-55.27
1312.438,-55.53
1312.453,-55.43
1312.468,-55.32
1312.483,-55.55
1312.498,-55.62
1312.513,-55.43
1312.528,-55.46
1312.543,-55.7
1312.558,-55.63
1312.573,-55.71
1312.588,-55.69
1312.603,-55.61
1312.618,-55.55
1312.633,-55.62
1312.648,-55.36
1312.663,-55.6
1312.678,-55.66
1312.693,-55.46
1312.708,-55.54
1312.723,-55.66
1312.738,-55.62
1312.753,-55.82
1312.768,-55.84
1312.783,-55.74
1312.798,-55.77
1312.813,-55.87
1312.828,-55.85
1312.843,-55.84
1312.858,-55.92
1312.873,-55.59
1312.888,-55.66
1312.903,-55.8
1312.918,-55.75
1312.933,-55.74
1312.948,-55.78
1312.963,-55.69
1312.978,-55.72
1312.993,-55.8
1313.008,-55.74
1313.023,-55.66
1313.038,-55.77
1313.053,-55.88
1313.068,-55.95
1313.083,-56.0
1313.098,-55.97
1313.113,-56.11
1313.128,-56.16
1313.143,-56.06
1313.158,-56.16
1313.173,-56.28
1313.188,-56.11
1313.203,-56.1
1313.218,-56.14
1313.233,-56.12
1313.248,-55.93
1313.263,-55.67
1313.278,-55.94
1313.293,-55.93
1313.308,-55.98
1313.323,-55.84
1313.338,-55.94
1313.353,-56.06
1313.368,-55.99
1313.383,-55.94
1313.398,-56.1
1313.413,-56.08
1313.428,-56.12
1313.443,-55.83
1313.458,-56.04
1313.473,-56.23
1313.488,-55.81
1313.503,-55.75
1313.518,-55.76
1313.533,-55.85
1313.548,-55.65
1313.563,-55.57
1313.578,-55.75
1313.593,-55.72
1313.608,-55.56
1313.623,-55.66
1313.638,-55.75
1313.653,-55.87
1313.668,-55.54
1313.683,-55.5
1313.698,-55.63
1313.713,-55.65
1313.728,-55.46
1313.743,-55.52
1313.758,-55.66
1313.773,-55.53
1313.788,-55.49
1313.803,-55.62
1313.818,-55.73
1313.833,-55.45
1313.848,-55.5
1313.863,-55.4
1313.878,-55.61
1313.893,-55.57
1313.908,-55.4
1313.923,-55.32
1313.938,-55.61
1313.953,-55.45
1313.968,-55.35
1313.983,-55.46
1313.998,-55.57
1314.013,-55.35
1314.028,-55.39
1314.043,-55.39
1314.058,-55.32
1314.073,-55.3
1314.088,-55.12
1314.103,-55.21
1314.118,-55.39
1314.133,-55.19
1314.148,-55.09
1314.163,-55.21
1314.178,-55.27
1314.193,-55.09
1314.208,-55.09
1314.223,-55.1
1314.238,-54.98
1314.253,-55.18
1314.268,-55.19
1314.283,-55.02
1314.298,-55.2
1314.313,-54.98
1314.328,-54.99
1314.343,-55.12
1314.358,-55.18
1314.373,-55.02
1314.388,-55.17
1314.403,-55.11
1314.418,-55.07
1314.433,-55.11
1314.448,-55.16
1314.463,-55.09
1314.478,-55.08
1314.493,-55.17
1314.508,-55.1
1314.523,-55.32
1314.538,-55.36
1314.553,-55.19
1314.568,-55.33
1314.583,-55.19
1314.598,-55.18
1314.613,-55.36
1314.628,-55.31
1314.643,-55.24
1314.658,-55.36
1314.673,-55.44
1314.688,-55.43
1314.703,-55.57
1314.718,-55.56
1314.733,-55.46
1314.748,-55.43
1314.763,-55.51
1314.778,-55.48
1314.793,-55.61
1314.808,-55.53
1314.823,-55.32
1314.838,-55.61
1314.853,-55.5
1314.868,-55.52
1314.883,-55.69
1314.898,-55.66
1314.913,-55.48
1314.928,-55.66
1314.943,-55.71
1314.958,-55.65
1314.973,-55.64
1314.988,-55.76
1315.003,-55.7
1315.018,-55.85
1315.033,-55.79
1315.048,-55.85
1315.063,-56.15
1315.078,-55.96
1315.093,-55.86
1315.108,-56.02
1315.123,-56.03
1315.138,-55.84
1315.153,-55.89
1315.168,-56.02
1315.183,-55.86
1315.198,-55.79
1315.213,-55.83
1315.228,-55.87
1315.243,-56.14
1315.258,-55.85
1315.273,-55.79
1315.288,-56.04
1315.303,-56.05
1315.318,-55.85
1315.333,-55.95
1315.348,-56.12
1315.363,-55.92
1315.378,-55.84
1315.393,-55.8
1315.408,-56.09
1315.423,-55.91
1315.438,-55.69
1315.453,-55.61
1315.468,-55.85
1315.483,-55.74
1315.498,-55.6
1315.513,-55.67
1315.528,-55.77
1315.543,-55.64
1315.558,-55.65
1315.573,-55.71
1315.588,-56.07
1315.603,-55.85
1315.618,-55.58
1315.633,-55.87
1315.648,-56.02
1315.663,-55.93
1315.678,-55.68
1315.693,-55.77
1315.708,-55.9
1315.723,-55.71
1315.738,-55.68
1315.753,-55.81
1315.768,-55.89
1315.783,-55.69
1315.798,-55.52
1315.813,-55.79
1315.828,-55.92
1315.843,-55.54
1315.858,-55.51
1315.873,-55.65
1315.888,-55.73
1315.903,-55.52
1315.918,-55.54
1315.933,-55.67
1315.948,-55.61
1315.963,-55.47
1315.978,-55.54
1315.993,-55.71
1316.008,-55.71
1316.023,-55.37
1316.038,-55.46
1316.053,-55.75
1316.068,-55.55
1316.083,-55.3
1316.098,-55.4
1316.113,-55.44
1316.128,-55.45
1316.143,-55.41
1316.158,-55.41
1316.173,-55.47
1316.188,-55.44
1316.203,-55.33
1316.218,-55.36
1316.233,-55.6
1316.248,-55.41
1316.263,-55.28
1316.278,-55.45
1316.293,-55.55
1316.308,-55.5
1316.323,-55.51
1316.338,-55.51
1316.353,-55.52
1316.368,-55.46
1316.383,-55.41
1316.398,-55.43
1316.413,-55.44
1316.428,-55.44
1316.443,-55.37
1316.458,-55.63
1316.473,-55.62
1316.488,-55.43
1316.503,-55.44
1316.518,-55.72
1316.533,-55.76
1316.548,-55.68
1316.563,-55.63
1316.578,-55.68
1316.593,-55.63
1316.608,-55.55
1316.623,-55.64
1316.638,-55.64
1316.653,-55.63
1316.668,-55.27
1316.683,-55.36
1316.698,-55.64
1316.713,-55.51
1316.728,-55.33
1316.743,-55.47
1316.758,-55.69
1316.773,-55.42
1316.788,-55.39
1316.803,-55.37
1316.818,-55.33
1316.833,-55.3
1316.848,-55.22
1316.863,-55.27
1316.878,-55.49
1316.893,-55.33
1316.908,-55.25
1316.923,-55.36
1316.938,-55.55
1316.953,-55.21
1316.968,-55.21
1316.983,-55.44
1316.998,-55.42
1317.013,-55.11
1317.028,-55.26
1317.043,-55.44
1317.058,-55.2
1317.073,-55.06
1317.088,-55.07
1317.103,-55.2
1317.118,-55.43
1317.133,-55.1
1317.148,-55.19
1317.163,-55.42
1317.178,-55.34
1317.193,-55.12
1317.208,-55.32
1317.224,-55.49
1317.238,-55.23
1317.253,-55.21
1317.268,-55.48
1317.283,-55.47
1317.298,-55.29
1317.313,-55.12
1317.328,-55.33
1317.344,-55.31
1317.359,-55.18
1317.373,-55.03
1317.388,-55.22
1317.403,-55.46
1317.418,-55.18
1317.433,-55.15
1317.448,-55.52
1317.464,-55.45
1317.479,-55.25
1317.494,-55.35
1317.509,-55.62
1317.523,-55.43
1317.538,-55.25
1317.553,-55.35
1317.568,-55.38
1317.583,-55.27
1317.599,-55.12
1317.614,-55.16
1317.629,-55.39
1317.644,-55.21
1317.658,-55.06
1317.673,-55.32
1317.688,-55.47
1317.703,-55.18
1317.719,-55.09
1317.734,-55.38
1317.749,-55.34
1317.764,-55.1
1317.779,-55.29
1317.794,-55.52
1317.808,-55.51
1317.823,-55.43
1317.839,-55.25
1317.854,-55.54
1317.869,-55.72
1317.884,-55.39
1317.899,-55.43
1317.914,-55.64
1317.929,-55.58
1317.944,-55.27
1317.958,-55.5
1317.974,-55.78
1317.989,-55.59
1318.004,-55.48
1318.019,-55.82
1318.034,-55.94
1318.049,-55.77
1318.064,-55.72
1318.079,-55.85
1318.094,-56.19
1318.109,-56.13
1318.124,-55.83
1318.139,-56.05
1318.154,-56.09
1318.169,-55.85
1318.184,-55.79
1318.199,-56.14
1318.214,-56.07
1318.229,-55.7
1318.244,-55.94
1318.259,-56.01
1318.274,-56.03
1318.289,-55.92
1318.304,-55.94
1318.319,-56.17
1318.334,-56.0
1318.349,-55.95
1318.364,-55.98
1318.379,-56.31
1318.394,-56.24
1318.409,-55.9
1318.424,-56.15
1318.439,-56.35
1318.454,-56.0
1318.469,-55.91
1318.484,-55.92
1318.499,-56.03
1318.514,-55.85
1318.529,-55.73
1318.544,-55.84
1318.559,-55.83
1318.574,-55.67
1318.589,-55.75
1318.604,-55.95
1318.619,-55.98
1318.634,-55.67
1318.649,-55.77
1318.664,-56.07
1318.679,-55.92
1318.694,-55.73
1318.709,-56.01
1318.724,-56.16
1318.739,-56.11
1318.754,-55.87
1318.769,-55.98
1318.784,-56.06
1318.799,-55.75
1318.814,-55.77
1318.829,-55.84
1318.844,-56.1
1318.859,-55.82
1318.874,-55.58
1318.889,-55.87
1318.904,-55.9
1318.919,-55.63
1318.934,-55.76
1318.949,-56.09
1318.964,-55.89
1318.979,-55.6
1318.994,-55.83
1319.009,-55.89
1319.024,-55.91
1319.039,-55.69
1319.054,-55.52
1319.069,-55.79
1319.084,-55.84
1319.099,-55.52
1319.114,-55.49
1319.129,-55.74
1319.144,-55.58
1319.159,-55.37
1319.174,-55.56
1319.189,-55.68
1319.204,-55.37
1319.219,-55.28
1319.234,-55.67
1319.249,-55.56
1319.264,-55.49
1319.279,-55.25
1319.294,-55.33
1319.309,-55.57
1319.324,-55.41
1319.339,-55.25
1319.354,-55.45
1319.369,-55.64
1319.384,-55.33
1319.399,-55.38
1319.414,-55.63
1319.429,-55.52
1319.444,-55.27
1319.459,-55.43
1319.474,-55.49
1319.489,-55.5
1319.504,-55.4
1319.519,-55.52
1319.534,-55.6
1319.549,-55.56
1319.564,-55.33
1319.579,-55.39
1319.594,-55.68
1319.609,-55.49
1319.624,-55.37
1319.639,-55.63
1319.654,-55.77
1319.669,-55.43
1319.684,-55.38
1319.699,-55.65
1319.714,-55.54
1319.729,-55.38
1319.744,-55.27
1319.759,-55.54
1319.774,-55.5
1319.789,-55.37
1319.804,-55.52
1319.819,-55.57
1319.834,-55.71
1319.849,-55.45
1319.864,-55.52
1319.879,-55.82
1319.894,-55.67
1319.909,-55.55
1319.924,-55.7
1319.939,-55.84
1319.954,-55.57
1319.969,-55.58
1319.984,-55.91
1319.999,-55.76
1320.014,-55.64
1320.029,-55.51
1320.044,-55.64
1320.059,-55.64
1320.074,-55.45
1320.089,-55.56
1320.104,-55.68
1320.119,-55.88
1320.134,-55.64
1320.149,-55.59
1320.164,-55.91
1320.179,-55.83
1320.194,-55.58
1320.209,-55.77
1320.224,-56.02
1320.239,-55.7
1320.254,-55.64
1320.269,-55.84
1320.284,-56.0
1320.299,-55.82
1320.314,-55.7
1320.329,-55.94
1320.344,-55.93
1320.359,-55.77
1320.374,-55.73
1320.389,-55.94
1320.404,-55.99
1320.419,-55.71
1320.434,-55.68
1320.449,-56.04
1320.464,-55.9
1320.479,-55.69
1320.494,-55.86
1320.509,-56.03
1320.524,-55.75
1320.539,-55.68
1320.554,-56.01
1320.569,-56.09
1320.584,-55.98
1320.599,-55.94
1320.614,-56.02
1320.629,-56.08
1320.644,-55.9
1320.659,-55.87
1320.674,-56.03
1320.689,-56.06
1320.704,-55.89
1320.719,-55.76
1320.734,-56.06
1320.749,-56.01
1320.764,-55.68
1320.779,-55.83
1320.794,-56.11
1320.809,-55.78
1320.824,-55.77
1320.839,-55.82
1320.854,-55.91
1320.869,-55.83
1320.884,-55.69
1320.899,-55.91
1320.914,-55.95
1320.929,-55.86
1320.944,-55.77
1320.959,-55.83
1320.974,-55.79
1320.989,-55.62
1321.004,-55.69
1321.019,-55.75
1321.034,-55.61
1321.049,-55.56
1321.064,-55.79
1321.079,-55.76
1321.094,-55.62
1321.109,-55.44
1321.124,-55.45
1321.139,-55.61
1321.154,-55.54
1321.169,-55.45
1321.184,-55.57
1321.199,-55.66
1321.214,-55.57
1321.229,-55.54
1321.244,-55.7
1321.259,-55.67
1321.274,-55.54
1321.289,-55.62
1321.304,-55.77
1321.319,-55.71
1321.334,-55.51
1321.349,-55.67
1321.364,-55.64
1321.379,-55.45
1321.394,-55.54
1321.409,-55.43
1321.424,-55.39
1321.439,-55.45
1321.454,-55.41
1321.469,-55.53
1321.484,-55.65
1321.499,-55.49
1321.514,-55.4
1321.529,-55.59
1321.544,-55.56
1321.559,-55.34
1321.574,-55.39
1321.589,-55.61
1321.604,-55.4
1321.619,-55.24
1321.634,-55.43
1321.649,-55.42
1321.664,-55.35
1321.679,-55.34
1321.694,-55.49
1321.709,-55.39
1321.724,-55.46
1321.739,-55.45
1321.754,-55.52
1321.769,-55.66
1321.784,-55.58
1321.799,-55.37
1321.814,-55.6
1321.829,-55.73
1321.844,-55.48
1321.859,-55.5
1321.874,-55.83
1321.889,-55.77
1321.904,-55.52
1321.919,-55.54
1321.934,-55.68
1321.949,-55.47
1321.964,-55.42
1321.979,-55.68
1321.994,-55.67
1322.009,-55.47
1322.024,-55.61
1322.039,-55.83
1322.054,-55.93
1322.069,-55.63
1322.084,-55.7
1322.099,-55.92
1322.114,-56.08
1322.129,-55.88
1322.144,-55.81
1322.159,-56.09
1322.174,-56.03
1322.189,-55.69
1322.204,-55.88
1322.219,-56.03
1322.234,-55.79
1322.249,-55.6
1322.264,-55.85
1322.279,-55.95
1322.294,-55.72
1322.309,-55.49
1322.324,-55.63
1322.339,-55.86
1322.354,-55.62
1322.369,-55.59
1322.384,-55.92
1322.399,-55.88
1322.414,-55.68
1322.429,-55.82
1322.444,-56.16
1322.459,-56.0
1322.474,-55.71
1322.489,-55.69
1322.504,-55.92
1322.519,-55.88
1322.534,-55.69
1322.549,-56.01
1322.564,-56.04
1322.579,-55.77
1322.594,-55.68
1322.609,-55.76
1322.624,-56.06
1322.639,-55.78
1322.654,-55.74
1322.669,-55.93
1322.684,-55.99
1322.699,-55.68
1322.714,-55.76
1322.729,-56.01
1322.744,-55.86
1322.759,-55.68
1322.774,-55.71
1322.789,-55.96
1322.804,-55.96
1322.819,-55.72
1322.834,-55.74
1322.849,-55.87
1322.864,-55.68
1322.879,-55.49
1322.894,-55.73
1322.909,-55.71
1322.924,-55.54
1322.939,-55.63
1322.954,-55.87
1322.969,-55.72
1322.984,-55.51
1322.999,-55.48
1323.014,-55.82
1323.029,-55.77
1323.044,-55.56
1323.059,-55.36
1323.074,-55.64
1323.089,-55.73
1323.104,-55.44
1323.119,-55.48
1323.134,-55.76
1323.149,-55.59
1323.164,-55.35
1323.179,-55.55
1323.194,-55.71
1323.209,-55.48
1323.224,-55.43
1323.239,-55.69
1323.254,-55.71
1323.269,-55.46
1323.284,-55.54
1323.299,-55.68
1323.314,-55.7
1323.329,-55.77
1323.344,-55.74
1323.359,-55.74
1323.374,-55.92
1323.389,-55.69
1323.404,-55.6
1323.419,-55.85
1323.434,-55.87
1323.449,-55.56
1323.464,-55.62
1323.479,-55.79
1323.494,-55.66
1323.509,-55.52
1323.524,-55.77
1323.539,-55.77
1323.554,-55.5
1323.569,-55.59
1323.584,-55.88
1323.599,-55.71
1323.614,-55.71
1323.629,-55.66
1323.644,-55.72
1323.659,-55.76
1323.674,-55.74
1323.689,-55.73
1323.704,-55.75
1323.719,-55.77
1323.734,-55.72
1323.749,-55.73
1323.764,-55.9
1323.779,-55.7
1323.794,-55.49
1323.809,-55.68
1323.824,-55.82
1323.839,-55.64
1323.854,-55.61
1323.869,-55.83
1323.884,-55.73
1323.899,-55.46
1323.914,-55.63
1323.929,-55.83
1323.944,-55.6
1323.959,-55.42
1323.974,-55.74
1323.989,-55.73
1324.004,-55.76
1324.019,-55.62
1324.034,-55.67
1324.049,-55.61
1324.064,-55.74
1324.079,-55.66
1324.094,-55.56
1324.109,-55.57
1324.124,-55.55
1324.139,-55.41
1324.154,-55.63
1324.169,-55.69
1324.184,-55.46
1324.199,-55.53
1324.214,-55.73
1324.229,-55.64
1324.244,-55.5
1324.259,-55.74
1324.274,-55.82
1324.289,-55.65
1324.304,-55.55
1324.319,-55.81
1324.334,-55.78
1324.349,-55.52
1324.364,-55.67
1324.379,-55.59
1324.394,-55.55
1324.409,-55.62
1324.424,-55.63
1324.439,-55.54
1324.454,-55.57
1324.469,-55.63
1324.484,-55.58
1324.499,-55.62
1324.514,-55.61
1324.529,-55.42
1324.544,-55.59
1324.559,-55.71
1324.574,-55.55
1324.589,-55.44
1324.604,-55.67
1324.619,-55.73
1324.634,-55.58
1324.649,-55.67
1324.664,-55.77
1324.679,-55.66
1324.694,-55.46
1324.709,-55.68
1324.724,-55.74
1324.739,-55.51
1324.754,-55.52
1324.769,-55.58
1324.784,-55.56
1324.799,-55.62
1324.814,-55.7
1324.829,-55.58
1324.844,-55.55
1324.859,-55.61
1324.874,-55.69
1324.889,-55.95
1324.904,-55.99
1324.919,-55.77
1324.934,-55.79
1324.949,-55.98
1324.964,-55.91
1324.979,-55.66
1324.994,-55.88
1325.009,-55.97
1325.024,-55.84
1325.039,-55.72
1325.054,-56.06
1325.069,-56.05
1325.084,-55.74
1325.099,-55.81
1325.114,-56.15
1325.129,-56.12
1325.144,-56.01
1325.159,-55.96
1325.174,-56.01
1325.189,-55.97
1325.204,-55.92
1325.219,-55.9
1325.234,-55.93
1325.25,-55.87
1325.264,-55.77
1325.279,-55.74
1325.294,-56.0
1325.309,-55.88
1325.324,-55.64
1325.339,-55.73
1325.354,-56.01
1325.37,-55.72
1325.385,-55.64
1325.4,-55.93
1325.414,-55.89
1325.429,-55.63
1325.444,-55.79
1325.459,-55.98
1325.474,-55.78
1325.49,-55.75
1325.505,-55.94
1325.52,-56.0
1325.535,-55.99
1325.549,-55.96
1325.564,-55.97
1325.579,-55.98
1325.594,-55.94
1325.609,-55.95
1325.625,-55.93
1325.64,-55.88
1325.655,-55.77
1325.67,-55.84
1325.685,-55.89
1325.699,-55.91
1325.714,-55.82
1325.729,-55.8
1325.745,-56.07
1325.76,-55.97
1325.775,-55.75
1325.79,-56.03
1325.805,-56.21
1325.82,-55.81
1325.834,-55.82
1325.849,-56.12
1325.865,-56.01
1325.88,-55.79
1325.895,-55.74
1325.91,-55.77
1325.925,-55.71
1325.94,-55.72
1325.955,-55.72
1325.97,-55.72
1325.984,-55.83
1326.0,-55.82
1326.015,-55.75
1326.03,-55.79
1326.045,-55.79
1326.06,-55.77
1326.075,-55.72
1326.09,-55.79
1326.105,-55.95
1326.12,-55.85
1326.135,-55.7
1326.15,-55.82
1326.165,-55.88
1326.18,-55.78
1326.195,-55.78
1326.21,-55.88
1326.225,-55.9
1326.24,-55.78
1326.255,-55.9
1326.27,-55.98
1326.285,-55.98
1326.3,-55.69
1326.315,-55.82
1326.33,-56.08
1326.345,-56.25
1326.36,-56.05
1326.375,-55.93
1326.39,-56.13
1326.405,-56.11
1326.42,-56.02
1326.435,-56.09
1326.45,-56.23
1326.465,-56.02
1326.48,-56.05
1326.495,-55.99
1326.51,-55.96
1326.525,-55.87
1326.54,-55.93
1326.555,-55.97
1326.57,-55.88
1326.585,-55.79
1326.6,-55.92
1326.615,-55.92
1326.63,-55.82
1326.645,-55.87
1326.66,-56.09
1326.675,-56.0
1326.69,-55.88
1326.705,-55.98
1326.72,-56.11
1326.735,-56.11
1326.75,-55.87
1326.765,-55.97
1326.78,-56.25
1326.795,-55.94
1326.81,-55.82
1326.825,-56.2
1326.84,-56.22
1326.855,-55.88
1326.87,-56.01
1326.885,-56.41
1326.9,-56.12
1326.915,-55.92
1326.93,-56.26
1326.945,-56.33
1326.96,-56.23
1326.975,-56.2
1326.99,-56.24
1327.005,-56.31
1327.02,-56.16
1327.035,-56.23
1327.05,-56.36
1327.065,-56.34
1327.08,-56.19
1327.095,-56.32
1327.11,-56.43
1327.125,-56.2
1327.14,-56.09
1327.155,-56.19
1327.17,-56.29
1327.185,-56.14
1327.2,-56.15
1327.215,-56.33
1327.23,-56.23
1327.245,-56.2
1327.26,-56.2
1327.275,-56.26
1327.29,-56.23
1327.305,-56.29
1327.32,-56.47
1327.335,-56.45
1327.35,-56.11
1327.365,-55.97
1327.38,-56.42
1327.395,-56.39
1327.41,-56.08
1327.425,-56.17
1327.44,-56.5
1327.455,-56.13
1327.47,-56.02
1327.485,-56.21
1327.5,-56.3
1327.515,-56.07
1327.53,-56.04
1327.545,-56.33
1327.56,-56.19
1327.575,-56.05
1327.59,-56.06
1327.605,-56.22
1327.62,-56.22
1327.635,-56.03
1327.65,-56.15
1327.665,-56.17
1327.68,-56.1
1327.695,-56.08
1327.71,-56.19
1327.725,-56.19
1327.74,-55.99
1327.755,-56.01
1327.77,-56.12
1327.785,-55.93
1327.8,-55.9
1327.815,-55.96
1327.83,-55.96
1327.845,-55.84
1327.86,-55.91
1327.875,-55.96
1327.89,-55.9
1327.905,-55.83
1327.92,-55.87
1327.935,-55.87
1327.95,-55.83
1327.965,-55.6
1327.98,-55.7
1327.995,-56.07
1328.01,-55.74
1328.025,-55.64
1328.04,-55.77
1328.055,-55.92
1328.07,-55.58
1328.085,-55.65
1328.1,-55.89
1328.115,-55.69
1328.13,-55.45
1328.145,-55.73
1328.16,-55.94
1328.175,-55.57
1328.19,-55.43
1328.205,-55.56
1328.22,-55.61
1328.235,-55.56
1328.25,-55.52
1328.265,-55.7
1328.28,-55.76
1328.295,-55.59
1328.31,-55.59
1328.325,-55.67
1328.34,-55.61
1328.355,-55.54
1328.37,-55.62
1328.385,-55.63
1328.4,-55.54
1328.415,-55.47
1328.43,-55.58
1328.445,-55.59
1328.46,-55.49
1328.475,-55.52
1328.49,-55.6
1328.505,-55.51
1328.52,-55.45
1328.535,-55.57
1328.55,-55.64
1328.565,-55.53
1328.58,-55.45
1328.595,-55.71
1328.61,-55.78
1328.625,-55.43
1328.64,-55.52
1328.655,-55.82
1328.67,-55.65
1328.685,-55.51
1328.7,-55.66
1328.715,-55.83
1328.73,-55.59
1328.745,-55.51
1328.76,-55.82
1328.775,-55.75
1328.79,-55.59
1328.805,-55.62
1328.82,-55.66
1328.835,-55.7
1328.85,-55.59
1328.865,-55.54
1328.88,-55.69
1328.895,-55.59
1328.91,-55.51
1328.925,-55.58
1328.94,-55.71
1328.955,-55.62
1328.97,-55.57
1328.985,-55.6
1329.0,-55.54
1329.015,-55.49
1329.03,-55.52
1329.045,-55.62
1329.06,-55.48
1329.075,-55.41
1329.09,-55.46
1329.105,-55.47
1329.12,-55.39
1329.135,-55.49
1329.15,-55.54
1329.165,-55.47
1329.18,-55.51
1329.195,-55.57
1329.21,-55.82
1329.225,-55.7
1329.24,-55.46
1329.255,-55.6
1329.27,-55.81
1329.285,-55.49
1329.3,-55.39
1329.315,-55.6
1329.33,-55.6
1329.345,-55.4
1329.36,-55.44
1329.375,-55.73
1329.39,-55.58
1329.405,-55.6
1329.42,-55.71
1329.435,-55.72
1329.45,-55.71
1329.465,-55.69
1329.48,-55.86
1329.495,-55.79
1329.51,-55.93
1329.525,-55.94
1329.54,-55.94
1329.555,-55.84
1329.57,-55.84
1329.585,-55.84
1329.6,-55.84
1329.615,-55.89
1329.63,-55.88
1329.645,-55.88
1329.66,-55.82
1329.675,-55.85
1329.69,-55.75
1329.705,-55.81
1329.72,-55.77
1329.735,-55.68
1329.75,-55.81
1329.765,-55.66
1329.78,-55.77
1329.795,-55.75
1329.81,-55.78
1329.825,-56.07
1329.84,-55.86
1329.855,-55.72
1329.87,-55.89
1329.885,-56.02
1329.9,-55.77
1329.915,-55.76
1329.93,-55.98
1329.945,-55.82
1329.96,-55.67
1329.975,-55.82
1329.99,-56.13
1330.005,-55.83
1330.02,-55.76
1330.035,-55.97
1330.05,-56.01
1330.065,-55.79
1330.08,-55.92
1330.095,-56.17
1330.11,-56.0
1330.125,-55.82
1330.14,-56.04
1330.155,-56.19
1330.17,-55.94
1330.185,-55.82
1330.2,-56.11
1330.215,-55.92
1330.23,-55.8
1330.245,-55.98
1330.26,-56.2
1330.275,-55.8
1330.29,-55.72
1330.305,-55.98
1330.32,-56.03
1330.335,-55.77
1330.35,-55.74
1330.365,-56.06
1330.38,-55.83
1330.395,-55.71
1330.41,-55.66
1330.425,-55.83
1330.44,-55.83
1330.455,-55.51
1330.47,-55.75
1330.485,-55.8
1330.5,-55.63
1330.515,-55.52
1330.53,-55.71
1330.545,-55.8
1330.56,-55.51
1330.575,-55.63
1330.59,-55.81
1330.605,-55.77
1330.62,-55.53
1330.635,-55.51
1330.65,-55.87
1330.665,-55.71
1330.68,-55.51
1330.695,-55.69
1330.71,-55.92
1330.725,-55.64
1330.74,-55.57
1330.755,-55.81
1330.77,-55.89
1330.785,-55.61
1330.8,-55.69
1330.815,-55.9
1330.83,-55.71
1330.845,-55.44
1330.86,-55.61
1330.875,-55.78
1330.89,-55.55
1330.905,-55.51
1330.92,-55.77
1330.935,-55.69
1330.95,-55.54
1330.965,-55.63
1330.98,-55.89
1330.995,-55.61
1331.01,-55.56
1331.025,-55.77
1331.04,-55.93
1331.055,-55.59
1331.07,-55.69
1331.085,-56.0
1331.1,-55.81
1331.115,-55.62
1331.13,-55.88
1331.145,-55.93
1331.16,-55.58
1331.175,-55.59
1331.19,-55.89
1331.205,-55.74
1331.22,-55.6
1331.235,-55.67
1331.25,-55.7
1331.265,-55.66
1331.28,-55.69
1331.295,-55.73
1331.31,-55.76
1331.325,-55.76
1331.34,-55.66
1331.355,-55.8
1331.37,-55.75
1331.385,-55.7
1331.4,-55.64
1331.415,-55.69
1331.43,-55.7
1331.445,-55.58
1331.46,-55.63
1331.475,-55.58
1331.49,-55.47
1331.505,-55.47
1331.52,-55.46
1331.535,-55.44
1331.55,-55.3
1331.565,-55.43
1331.58,-55.39
1331.595,-55.46
1331.61,-55.4
1331.625,-55.4
1331.64,-55.68
1331.655,-55.41
1331.67,-55.28
1331.685,-55.4
1331.7,-55.59
1331.715,-55.29
1331.73,-55.3
1331.745,-55.54
1331.76,-55.46
1331.775,-55.21
1331.79,-55.3
1331.805,-55.52
1331.82,-55.33
1331.835,-55.26
1331.85,-55.48
1331.865,-55.63
1331.88,-55.4
1331.895,-55.38
1331.91,-55.63
1331.925,-55.5
1331.94,-55.41
1331.955,-55.48
1331.97,-55.7
1331.985,-55.37
1332.0,-55.34
1332.015,-55.59
1332.03,-55.57
1332.045,-55.23
1332.06,-55.3
1332.075,-55.56
1332.09,-55.25
1332.105,-55.17
1332.12,-55.42
1332.135,-55.54
1332.15,-55.27
1332.165,-55.32
1332.18,-55.56
1332.195,-55.47
1332.21,-55.31
1332.225,-55.48
1332.24,-55.62
1332.255,-55.63
1332.27,-55.37
1332.285,-55.47
1332.3,-55.6
1332.315,-55.41
1332.33,-55.33
1332.345,-55.56
1332.36,-55.55
1332.375,-55.27
1332.39,-55.3
1332.405,-55.5
1332.42,-55.64
1332.435,-55.32
1332.45,-55.34
1332.465,-55.65
1332.48,-55.65
1332.495,-55.45
1332.51,-55.63
1332.525,-55.87
1332.54,-55.65
1332.555,-55.64
1332.57,-55.86
1332.585,-55.84
1332.6,-55.59
1332.615,-55.61
1332.63,-55.88
1332.645,-55.63
1332.66,-55.49
1332.675,-55.65
1332.69,-55.87
1332.705,-55.59
1332.72,-55.64
1332.735,-55.85
1332.75,-55.78
1332.765,-55.54
1332.78,-55.69
1332.795,-55.96
1332.81,-55.75
1332.825,-55.65
1332.84,-55.78
1332.855,-55.92
1332.87,-55.67
1332.885,-55.68
1332.9,-55.91
1332.915,-55.81
1332.93,-55.65
1332.945,-55.72
1332.96,-55.96
1332.975,-55.61
1332.99,-55.64
1333.005,-55.9
1333.02,-55.88
1333.035,-55.58
1333.05,-55.65
1333.065,-55.93
1333.08,-55.65
1333.095,-55.66
1333.11,-55.89
1333.125,-55.89
1333.141,-55.52
1333.155,-55.69
1333.17,-55.94
1333.185,-55.67
1333.2,-55.55
1333.215,-55.82
1333.23,-55.81
1333.245,-55.55
1333.26,-55.6
1333.276,-55.92
1333.29,-55.77
1333.305,-55.62
1333.32,-55.89
1333.335,-56.02
1333.35,-55.68
1333.365,-55.69
1333.38,-56.07
1333.396,-56.0
1333.411,-55.85
1333.426,-55.79
1333.44,-56.04
1333.455,-56.0
1333.47,-55.8
1333.485,-55.82
1333.5,-56.02
1333.516,-55.89
1333.531,-55.65
1333.546,-55.88
1333.561,-55.92
1333.575,-55.75
1333.59,-55.83
1333.605,-55.92
1333.62,-55.88
1333.635,-55.68
1333.651,-55.82
1333.666,-55.98
1333.681,-55.89
1333.696,-55.77
1333.711,-56.05
1333.725,-56.0
1333.74,-55.78
1333.755,-55.91
1333.771,-56.06
1333.786,-55.94
1333.801,-55.83
1333.816,-55.94
1333.831,-55.93
1333.846,-55.88
1333.86,-55.84
1333.875,-55.92
1333.891,-55.9
1333.906,-55.89
1333.921,-55.9
1333.936,-55.92
1333.951,-55.9
1333.966,-55.85
1333.981,-56.01
1333.996,-56.02
1334.01,-56.01
1334.026,-55.93
1334.041,-55.98
1334.056,-56.08
1334.071,-56.07
1334.086,-56.15
1334.101,-56.04
1334.116,-56.0
1334.131,-56.07
1334.146,-56.12
1334.161,-55.97
1334.176,-55.9
1334.191,-56.08
1334.206,-56.11
1334.221,-55.88
1334.236,-55.97
1334.251,-56.2
1334.266,-56.04
1334.281,-55.9
1334.296,-56.07
1334.311,-56.07
1334.326,-55.89
1334.341,-55.82
1334.356,-56.07
1334.371,-55.98
1334.386,-55.75
1334.401,-55.88
1334.416,-55.97
1334.431,-55.85
1334.446,-55.75
1334.461,-55.94
1334.476,-55.96
1334.491,-55.73
1334.506,-55.82
1334.521,-55.88
1334.536,-55.87
1334.551,-55.73
1334.566,-55.87
1334.581,-55.91
1334.596,-55.71
1334.611,-55.82
1334.626,-55.96
1334.641,-55.93
1334.656,-55.79
1334.671,-55.92
1334.686,-56.02
1334.701,-55.95
1334.716,-55.8
1334.731,-55.88
1334.746,-55.89
1334.761,-55.6
1334.776,-55.65
1334.791,-55.87
1334.806,-55.7
1334.821,-55.53
1334.836,-55.7
1334.851,-55.71
1334.866,-55.53
1334.881,-55.59
1334.896,-55.74
1334.911,-55.57
1334.926,-55.47
1334.941,-55.72
1334.956,-55.77
1334.971,-55.57
1334.986,-55.52
1335.001,-55.73
1335.016,-55.59
1335.031,-55.37
1335.046,-55.62
1335.061,-55.69
1335.076,-55.43
1335.091,-55.32
1335.106,-55.65
1335.121,-55.58
1335.136,-55.34
1335.151,-55.42
1335.166,-55.63
1335.181,-55.49
1335.196,-55.38
1335.211,-55.53
1335.226,-55.56
1335.241,-55.48
1335.256,-55.49
1335.271,-55.6
1335.286,-55.46
1335.301,-55.32
1335.316,-55.45
1335.331,-55.48
1335.346,-55.41
1335.361,-55.36
1335.376,-55.55
1335.391,-55.5
1335.406,-55.36
1335.421,-55.26
1335.436,-55.29
1335.451,-55.33
1335.466,-55.29
1335.481,-55.25
1335.496,-55.41
1335.511,-55.47
1335.526,-55.4
1335.541,-55.44
1335.556,-55.56
1335.571,-55.58
1335.586,-55.4
1335.601,-55.51
1335.616,-55.56
1335.631,-55.45
1335.646,-55.45
1335.661,-55.54
1335.676,-55.54
1335.691,-55.44
1335.706,-55.39
1335.721,-55.49
1335.736,-55.51
1335.751,-55.44
1335.766,-55.52
1335.781,-55.62
1335.796,-55.53
1335.811,-55.51
1335.826,-55.55
1335.841,-55.66
1335.856,-55.67
1335.871,-55.71
1335.886,-55.67
1335.901,-55.73
1335.916,-55.7
1335.931,-55.73
1335.946,-55.7
1335.961,-55.62
1335.976,-55.64
1335.991,-55.63
1336.006,-55.67
1336.021,-55.6
1336.036,-55.63
1336.051,-55.57
1336.066,-55.54
1336.081,-55.61
1336.096,-55.67
1336.111,-55.67
1336.126,-55.62
1336.141,-55.67
1336.156,-55.79
1336.171,-55.75
1336.186,-55.7
1336.201,-55.75
1336.216,-55.77
1336.231,-55.77
1336.246,-55.62
1336.261,-55.61
1336.276,-55.69
1336.291,-55.71
1336.306,-55.71
1336.321,-55.76
1336.336,-55.78
1336.351,-55.7
1336.366,-55.77
1336.381,-55.79
1336.396,-55.78
1336.411,-55.73
1336.426,-55.96
1336.441,-56.17
1336.456,-55.99
1336.471,-55.9
1336.486,-56.13
1336.501,-56.18
1336.516,-55.85
1336.531,-55.96
1336.546,-56.16
1336.561,-55.89
1336.576,-55.62
1336.591,-55.91
1336.606,-55.93
1336.621,-55.66
1336.636,-55.79
1336.651,-55.95
1336.666,-55.84
1336.681,-55.58
1336.696,-55.81
1336.711,-55.91
1336.726,-55.71
1336.741,-55.6
1336.756,-55.81
1336.771,-55.81
1336.786,-55.64
1336.801,-55.65
1336.816,-55.81
1336.831,-55.79
1336.846,-55.64
1336.861,-55.72
1336.876,-55.64
1336.891,-55.56
1336.906,-55.51
1336.921,-55.68
1336.936,-55.64
1336.951,-55.46
1336.966,-55.62
1336.981,-55.61
1336.996,-55.58
1337.011,-55.36
1337.026,-55.56
1337.041,-55.68
1337.056,-55.53
1337.071,-55.6
1337.086,-55.71
1337.101,-55.63
1337.116,-55.43
1337.131,-55.68
1337.146,-55.72
1337.161,-55.51
1337.176,-55.49
1337.191,-55.65
1337.206,-55.57
1337.221,-55.43
1337.236,-55.51
1337.251,-55.72
1337.266,-55.53
1337.281,-55.42
1337.296,-55.67
1337.311,-55.6
1337.326,-55.34
1337.341,-55.42
1337.356,-55.61
1337.371,-55.51
1337.386,-55.35
1337.401,-55.62
1337.416,-55.61
1337.431,-55.42
1337.446,-55.37
1337.461,-55.57
1337.476,-55.42
1337.491,-55.27
1337.506,-55.37
1337.521,-55.44
1337.536,-55.23
1337.551,-55.15
1337.566,-55.44
1337.581,-55.4
1337.596,-55.26
1337.611,-55.45
1337.626,-55.52
1337.641,-55.3
1337.656,-55.19
1337.671,-55.49
1337.686,-55.54
1337.701,-55.33
1337.716,-55.42
1337.731,-55.59
1337.746,-55.47
1337.761,-55.24
1337.776,-55.49
1337.791,-55.53
1337.806,-55.32
1337.821,-55.32
1337.836,-55.6
1337.851,-55.45
1337.866,-55.26
1337.881,-55.44
1337.896,-55.63
1337.911,-55.37
1337.926,-55.23
1337.941,-55.48
1337.956,-55.53
1337.971,-55.29
1337.986,-55.47
1338.001,-55.72
1338.016,-55.61
1338.031,-55.46
1338.046,-55.65
1338.061,-55.7
1338.076,-55.45
1338.091,-55.41
1338.106,-55.7
1338.121,-55.65
1338.136,-55.41
1338.151,-55.42
1338.166,-55.38
1338.181,-55.42
1338.196,-55.52
1338.211,-55.45
1338.226,-55.44
1338.241,-55.49
1338.256,-55.45
1338.271,-55.44
1338.286,-55.51
1338.301,-55.48
1338.316,-55.47
1338.331,-55.51
1338.346,-55.57
1338.361,-55.56
1338.376,-55.47
1338.391,-55.45
1338.406,-55.35
1338.421,-55.27
1338.436,-55.32
1338.451,-55.33
1338.466,-55.37
1338.481,-55.38
1338.496,-55.4
1338.511,-55.43
1338.526,-55.44
1338.541,-55.42
1338.556,-55.45
1338.571,-55.42
1338.586,-55.47
1338.601,-55.42
1338.616,-55.37
1338.631,-55.47
1338.646,-55.45
1338.661,-55.53
1338.676,-55.45
1338.691,-55.49
1338.706,-55.39
1338.721,-55.38
1338.736,-55.44
1338.751,-55.38
1338.766,-55.4
1338.781,-55.39
1338.796,-55.39
1338.811,-55.38
1338.826,-55.46
1338.841,-55.44
1338.856,-55.49
1338.871,-55.45
1338.886,-55.49
1338.901,-55.46
1338.916,-55.48
1338.931,-55.53
1338.946,-55.54
1338.961,-55.5
1338.976,-55.48
1338.991,-55.46
1339.006,-55.39
1339.021,-55.4
1339.036,-55.42
1339.051,-55.33
1339.066,-55.36
1339.081,-55.37
1339.096,-55.41
1339.111,-55.43
1339.126,-55.42
1339.141,-55.66
1339.156,-55.68
1339.171,-55.71
1339.186,-55.71
1339.201,-55.61
1339.216,-55.69
1339.231,-55.74
1339.246,-55.71
1339.261,-55.69
1339.276,-55.69
1339.291,-55.64
1339.306,-55.6
1339.321,-55.59
1339.336,-55.58
1339.351,-55.64
1339.366,-55.65
1339.381,-55.58
1339.396,-55.71
1339.411,-55.72
1339.426,-55.75
1339.441,-55.7
1339.456,-55.79
1339.471,-55.74
1339.486,-55.64
1339.501,-55.73
1339.516,-55.7
1339.531,-55.68
1339.546,-55.7
1339.561,-55.76
1339.576,-55.74
1339.591,-55.68
1339.606,-55.66
1339.621,-55.71
1339.636,-55.69
1339.651,-55.69
1339.666,-55.72
1339.681,-55.77
1339.696,-55.74
1339.711,-55.76
1339.726,-55.78
1339.741,-55.74
1339.756,-55.67
1339.771,-55.76
1339.786,-55.88
1339.801,-55.82
1339.816,-55.84
1339.831,-55.87
1339.846,-55.86
1339.861,-55.73
1339.876,-56.05
1339.891,-56.0
1339.906,-55.71
1339.921,-55.71
1339.936,-56.0
1339.951,-55.78
1339.966,-55.65
1339.981,-55.86
1339.996,-55.98
1340.011,-55.59
1340.026,-55.62
1340.041,-55.95
1340.056,-55.82
1340.071,-55.61
1340.086,-55.78
1340.101,-56.06
1340.116,-55.75
1340.131,-55.78
1340.146,-55.79
1340.161,-55.7
1340.176,-55.71
1340.191,-55.75
1340.206,-55.7
1340.221,-55.62
1340.236,-55.57
1340.251,-55.61
1340.266,-55.59
1340.281,-55.57
1340.296,-55.64
1340.311,-55.67
1340.326,-55.62
1340.341,-55.66
1340.356,-55.68
1340.371,-55.67
1340.386,-55.72
1340.401,-55.67
1340.416,-55.66
1340.431,-55.71
1340.446,-55.75
1340.461,-55.8
1340.476,-55.75
1340.491,-55.8
1340.506,-55.77
1340.521,-55.81
1340.536,-55.79
1340.551,-55.72
1340.566,-55.95
1340.581,-55.74
1340.596,-55.6
1340.611,-55.97
1340.626,-56.05
1340.641,-55.78
1340.656,-55.8
1340.671,-56.07
1340.686,-55.87
1340.701,-55.62
1340.716,-55.89
1340.731,-56.06
1340.746,-55.74
1340.761,-55.78
1340.776,-56.07
1340.791,-55.99
1340.806,-55.72
1340.821,-55.81
1340.836,-56.06
1340.851,-55.8
1340.866,-55.77
1340.881,-55.73
1340.896,-55.73
1340.911,-55.7
1340.926,-55.84
1340.941,-55.84
1340.956,-55.79
1340.971,-55.79
1340.986,-55.95
1341.001,-55.66
1341.016,-55.74
1341.031,-56.0
1341.046,-55.82
1341.061,-55.68
1341.076,-55.9
1341.091,-56.06
1341.106,-55.69
1341.121,-55.63
1341.136,-55.85
1341.151,-55.79
1341.167,-55.53
1341.181,-55.6
1341.196,-55.85
1341.211,-55.66
1341.226,-55.54
1341.241,-55.78
1341.256,-55.84
1341.271,-55.61
1341.286,-55.66
1341.302,-55.95
1341.316,-55.83
1341.331,-55.7
1341.346,-55.95
1341.361,-56.12
1341.376,-55.86
1341.391,-55.76
1341.406,-55.96
1341.422,-55.68
1341.437,-55.6
1341.452,-55.89
1341.466,-55.77
1341.481,-55.56
1341.496,-55.71
1341.511,-55.95
1341.526,-55.73
1341.542,-55.56
1341.557,-55.93
1341.572,-55.77
1341.587,-55.64
1341.601,-55.91
1341.616,-55.96
1341.631,-55.78
1341.646,-55.77
1341.661,-55.99
1341.677,-55.86
1341.692,-55.71
1341.707,-55.86
1341.722,-55.92
1341.737,-55.65
1341.751,-55.68
1341.766,-55.89
1341.781,-55.82
1341.797,-55.61
1341.812,-55.74
1341.827,-56.0
1341.842,-55.73
1341.857,-55.62
1341.872,-56.0
1341.887,-56.03
1341.901,-55.76
1341.917,-55.86
1341.932,-56.19
1341.947,-56.04
1341.962,-55.88
1341.977,-56.15
1341.992,-56.09
1342.007,-56.0
1342.022,-56.0
1342.036,-56.04
1342.052,-55.96
1342.067,-56.1
1342.082,-56.25
1342.097,-55.95
1342.112,-56.01
1342.127,-56.34
1342.142,-56.28
1342.157,-55.93
1342.172,-56.04
1342.187,-56.38
1342.202,-56.1
1342.217,-55.98
1342.232,-56.28
1342.247,-56.36
1342.262,-56.08
1342.277,-56.05
1342.292,-56.23
1342.307,-56.13
1342.322,-55.9
1342.337,-55.98
1342.352,-56.23
1342.367,-55.87
1342.382,-55.79
1342.397,-56.02
1342.412,-56.01
1342.427,-56.03
1342.442,-56.13
1342.457,-56.06
1342.472,-56.1
1342.487,-56.09
1342.502,-56.09
1342.517,-56.03
1342.532,-56.03
1342.547,-56.08
1342.562,-55.99
1342.577,-55.91
1342.592,-55.91
1342.607,-55.85
1342.622,-55.85
1342.637,-55.66
1342.652,-55.65
1342.667,-55.62
1342.682,-55.41
1342.697,-55.54
1342.712,-55.77
1342.727,-55.5
1342.742,-55.5
1342.757,-55.78
1342.772,-55.79
1342.787,-55.54
1342.802,-55.56
1342.817,-55.85
1342.832,-55.61
1342.847,-55.55
1342.862,-55.76
1342.877,-55.73
1342.892,-55.42
1342.907,-55.44
1342.922,-55.66
1342.937,-55.51
1342.952,-55.27
1342.967,-55.35
1342.982,-55.47
1342.997,-55.24
1343.012,-55.32
1343.027,-55.52
1343.042,-55.48
1343.057,-55.29
1343.072,-55.28
1343.087,-55.32
1343.102,-55.27
1343.117,-55.42
1343.132,-55.37
1343.147,-55.16
1343.162,-55.24
1343.177,-55.58
1343.192,-55.43
1343.207,-55.3
1343.222,-55.45
1343.237,-55.56
1343.252,-55.33
1343.267,-55.33
1343.282,-55.61
1343.297,-55.56
1343.312,-55.34
1343.327,-55.4
1343.342,-55.68
1343.357,-55.42
1343.372,-55.36
1343.387,-55.55
1343.402,-55.61
1343.417,-55.38
1343.432,-55.49
1343.447,-55.67
1343.462,-55.5
1343.477,-55.35
1343.492,-55.56
1343.507,-55.63
1343.522,-55.32
1343.537,-55.52
1343.552,-55.61
1343.567,-55.38
1343.582,-55.37
1343.597,-55.66
1343.612,-55.67
1343.627,-55.34
1343.642,-55.6
1343.657,-55.76
1343.672,-55.5
1343.687,-55.63
1343.702,-55.88
1343.717,-55.6
1343.732,-55.59
1343.747,-55.77
1343.762,-55.69
1343.777,-55.39
1343.792,-55.47
1343.807,-55.76
1343.822,-55.57
1343.837,-55.41
1343.852,-55.51
1343.867,-55.71
1343.882,-55.35
1343.897,-55.4
1343.912,-55.65
1343.927,-55.58
1343.942,-55.45
1343.957,-55.68
1343.972,-55.69
1343.987,-55.49
1344.002,-55.71
1344.017,-55.76
1344.032,-55.63
1344.047,-55.49
1344.062,-55.82
1344.077,-55.84
1344.092,-55.5
1344.107,-55.66
1344.122,-55.69
1344.137,-55.52
1344.152,-55.48
1344.167,-55.77
1344.182,-55.61
1344.197,-55.39
1344.212,-55.51
1344.227,-55.77
1344.242,-55.45
1344.257,-55.41
1344.272,-55.62
1344.287,-55.6
1344.302,-55.42
1344.317,-55.48
1344.332,-55.8
1344.347,-55.53
1344.362,-55.39
1344.377,-55.65
1344.392,-55.45
1344.407,-55.26
1344.422,-55.5
1344.437,-55.49
1344.452,-55.25
1344.467,-55.27
1344.482,-55.53
1344.497,-55.36
1344.512,-55.16
1344.527,-55.46
1344.542,-55.35
1344.557,-55.1
1344.572,-55.25
1344.587,-55.51
1344.602,-55.27
1344.617,-55.23
1344.632,-55.58
1344.647,-55.49
1344.662,-55.24
1344.677,-55.41
1344.692,-55.72
1344.707,-55.45
1344.722,-55.32
1344.737,-55.44
1344.752,-55.53
1344.767,-55.38
1344.782,-55.39
1344.797,-55.52
1344.812,-55.25
1344.827,-55.23
1344.842,-55.52
1344.857,-55.46
1344.872,-55.19
1344.887,-55.4
1344.902,-55.54
1344.917,-55.34
1344.932,-55.29
1344.947,-55.53
1344.962,-55.35
1344.977,-55.3
1344.992,-55.51
1345.007,-55.45
1345.022,-55.16
1345.037,-55.24
1345.052,-55.49
1345.067,-55.25
1345.082,-55.23
1345.097,-55.39
1345.112,-55.48
1345.127,-55.3
1345.142,-55.2
1345.157,-55.59
1345.172,-55.41
1345.187,-55.23
1345.202,-55.3
1345.217,-55.29
1345.232,-55.07
1345.247,-55.28
1345.262,-55.37
1345.277,-55.15
1345.292,-55.04
1345.307,-55.29
1345.322,-55.29
1345.337,-55.05
1345.352,-55.14
1345.367,-55.27
1345.382,-55.02
1345.397,-55.16
1345.412,-55.42
1345.427,-55.25
1345.442,-55.13
1345.457,-55.36
1345.472,-55.46
1345.487,-55.17
1345.502,-55.21
1345.517,-55.52
1345.532,-55.42
1345.547,-55.22
1345.562,-55.4
1345.577,-55.67
1345.592,-55.42
1345.607,-55.57
1345.622,-55.66
1345.637,-55.34
1345.652,-55.21
1345.667,-55.45
1345.682,-55.48
1345.697,-55.12
1345.712,-55.18
1345.727,-55.44
1345.742,-55.32
1345.757,-55.16
1345.772,-55.36
1345.787,-55.33
1345.802,-55.18
1345.817,-55.47
1345.832,-55.6
1345.847,-55.24
1345.862,-55.34
1345.877,-55.67
1345.892,-55.47
1345.907,-55.35
1345.922,-55.53
1345.937,-55.45
1345.952,-55.2
1345.967,-55.37
1345.982,-55.5
1345.997,-55.29
1346.012,-55.26
1346.027,-55.5
1346.042,-55.5
1346.057,-55.25
1346.072,-55.44
1346.087,-55.49
1346.102,-55.39
1346.117,-55.28
1346.132,-55.46
1346.147,-55.57
1346.162,-55.26
1346.177,-55.39
1346.192,-55.36
1346.207,-55.39
1346.222,-55.6
1346.237,-55.58
1346.252,-55.26
1346.267,-55.28
1346.282,-55.5
1346.297,-55.39
1346.312,-55.21
1346.327,-55.46
1346.342,-55.44
1346.357,-55.27
1346.372,-55.26
1346.387,-55.5
1346.402,-55.36
1346.417,-55.19
1346.432,-55.29
1346.447,-55.47
1346.462,-55.31
1346.477,-55.21
1346.492,-55.19
1346.507,-55.28
1346.522,-55.25
1346.537,-55.14
1346.552,-55.08
1346.567,-55.21
1346.582,-55.19
1346.597,-55.12
1346.612,-54.86
1346.627,-54.92
1346.642,-55.16
1346.657,-55.09
1346.672,-54.99
1346.687,-55.13
1346.702,-55.24
1346.717,-55.11
1346.732,-54.97
1346.747,-55.19
1346.762,-55.12
1346.777,-54.91
1346.792,-55.14
1346.807,-55.21
1346.822,-55.03
1346.837,-54.9
1346.852,-55.19
1346.867,-55.11
1346.882,-54.89
1346.897,-55.0
1346.912,-54.96
1346.927,-54.92
1346.942,-55.19
1346.957,-55.19
1346.972,-54.96
1346.987,-55.0
1347.002,-55.21
1347.017,-55.01
1347.032,-54.96
1347.047,-55.15
1347.062,-55.21
1347.077,-54.96
1347.092,-54.96
1347.107,-55.23
1347.122,-55.13
1347.137,-54.91
1347.152,-55.08
1347.167,-55.16
1347.182,-54.93
1347.197,-55.07
1347.212,-55.24
1347.227,-54.99
1347.242,-54.97
1347.257,-55.27
1347.272,-55.21
1347.287,-55.02
1347.302,-55.15
1347.317,-55.41
1347.332,-55.07
1347.347,-55.18
1347.362,-55.39
1347.377,-55.26
1347.392,-55.09
1347.407,-55.41
1347.422,-55.44
1347.437,-55.16
1347.452,-55.21
1347.467,-55.38
1347.482,-55.19
1347.497,-55.23
1347.512,-55.47
1347.527,-55.33
1347.542,-55.15
1347.557,-55.34
1347.572,-55.5
1347.587,-55.19
1347.602,-55.15
1347.617,-55.53
1347.632,-55.46
1347.647,-55.38
1347.662,-55.6
1347.677,-55.52
1347.692,-55.33
1347.707,-55.49
1347.722,-55.54
1347.737,-55.47
1347.752,-55.31
1347.767,-55.53
1347.782,-55.52
1347.797,-55.27
1347.812,-55.44
1347.827,-55.6
1347.842,-55.5
1347.857,-55.28
1347.872,-55.28
1347.887,-55.29
1347.902,-55.33
1347.917,-55.44
1347.932,-55.35
1347.947,-55.13
1347.962,-55.3
1347.977,-55.37
1347.992,-55.23
1348.007,-55.18
1348.022,-55.43
1348.037,-55.29
1348.052,-55.05
1348.067,-55.23
1348.082,-55.32
1348.097,-55.42
1348.112,-55.32
1348.127,-55.3
1348.142,-55.33
1348.157,-55.3
1348.172,-55.28
1348.187,-55.24
1348.202,-55.35
1348.217,-55.31
1348.232,-55.25
1348.247,-55.24
1348.262,-55.23
1348.277,-55.29
1348.292,-55.29
1348.307,-55.3
1348.322,-55.05
1348.337,-55.09
1348.352,-55.13
1348.367,-55.03
1348.382,-55.0
1348.397,-55.11
1348.412,-55.06
1348.427,-55.0
1348.442,-55.1
1348.457,-55.04
1348.472,-55.0
1348.487,-54.97
1348.502,-55.04
1348.517,-55.04
1348.532,-55.04
1348.547,-55.11
1348.562,-55.17
1348.577,-54.94
1348.592,-54.96
1348.607,-55.24
1348.622,-55.13
1348.637,-54.98
1348.652,-54.9
1348.667,-54.92
1348.682,-54.94
1348.697,-54.94
1348.712,-54.85
1348.727,-54.87
1348.742,-54.87
1348.757,-54.89
1348.772,-54.89
1348.787,-54.94
1348.802,-54.99
1348.817,-54.93
1348.832,-54.97
1348.847,-54.96
1348.862,-55.17
1348.877,-55.21
1348.892,-55.19
1348.907,-55.12
1348.922,-55.15
1348.937,-55.16
1348.952,-55.17
1348.967,-55.13
1348.982,-55.19
1348.997,-55.14
1349.012,-55.09
1349.027,-55.13
1349.042,-55.15
1349.057,-55.19
1349.072,-55.17
1349.087,-55.3
1349.102,-55.14
1349.117,-54.95
1349.132,-55.18
1349.147,-55.34
1349.162,-55.29
1349.177,-55.31
1349.193,-55.38
1349.207,-55.28
1349.222,-55.31
1349.237,-55.32
1349.252,-55.28
1349.267,-55.3
1349.282,-55.29
1349.297,-55.27
1349.313,-55.27
1349.328,-55.42
1349.343,-55.56
1349.357,-55.38
1349.372,-55.33
1349.387,-55.62
1349.402,-55.62
1349.417,-55.35
1349.432,-55.45
1349.448,-55.68
1349.463,-55.61
1349.478,-55.68
1349.492,-55.77
1349.507,-55.76
1349.522,-55.74
1349.537,-55.76
1349.552,-55.68
1349.568,-55.59
1349.583,-55.79
1349.598,-55.93
1349.613,-55.67
1349.628,-55.59
1349.642,-55.84
1349.657,-55.82
1349.672,-55.5
1349.688,-55.68
1349.703,-55.71
1349.718,-55.66
1349.733,-55.77
1349.748,-55.83
1349.763,-55.82
1349.777,-55.77
1349.792,-55.84
1349.807,-55.84
1349.823,-55.78
1349.838,-55.77
1349.853,-55.82
1349.868,-55.54
1349.883,-55.57
1349.898,-55.78
1349.913,-55.77
1349.927,-55.84
1349.943,-55.86
1349.958,-55.76
1349.973,-55.85
1349.988,-55.81
1350.003,-55.84
1350.018,-55.92
1350.033,-55.84
1350.048,-55.93
1350.063,-55.96
1350.078,-55.84
1350.093,-55.86
1350.108,-55.91
1350.123,-55.98
1350.138,-55.83
1350.153,-55.89
1350.168,-55.8
1350.183,-55.82
1350.198,-55.87
1350.213,-55.83
1350.228,-55.76
1350.243,-55.8
1350.258,-55.85
1350.273,-55.84
1350.288,-55.91
1350.303,-56.0
1350.318,-55.95
1350.333,-55.92
1350.348,-56.05
1350.363,-56.06
1350.378,-55.98
1350.393,-55.93
1350.408,-55.75
1350.423,-55.94
1350.438,-56.12
1350.453,-55.72
1350.468,-55.76
1350.483,-55.66
1350.498,-55.74
1350.513,-55.68
1350.528,-55.6
1350.543,-55.66
1350.558,-55.7
1350.573,-55.65
1350.588,-55.62
1350.603,-55.72
1350.618,-55.71
1350.633,-55.62
1350.648,-55.52
1350.663,-55.47
1350.678,-55.71
1350.693,-55.73
1350.708,-55.66
1350.723,-55.62
1350.738,-55.61
1350.753,-55.59
1350.768,-55.53
1350.783,-55.55
1350.798,-55.62
1350.813,-55.59
1350.828,-55.57
1350.843,-55.56
1350.858,-55.66
1350.873,-55.6
1350.888,-55.54
1350.903,-55.57
1350.918,-55.58
1350.933,-55.34
1350.948,-55.36
1350.963,-55.38
1350.978,-55.33
1350.993,-55.39
1351.008,-55.35
1351.023,-55.35
1351.038,-55.37
1351.053,-55.35
1351.068,-55.25
1351.083,-55.26
1351.098,-55.32
1351.113,-55.24
1351.128,-55.25
1351.143,-55.33
1351.158,-55.3
1351.173,-55.26
1351.188,-55.09
1351.203,-55.16
1351.218,-55.38
1351.233,-55.22
1351.248,-55.3
1351.263,-55.3
1351.278,-55.34
1351.293,-55.24
1351.308,-55.17
1351.323,-55.16
1351.338,-55.15
1351.353,-55.14
1351.368,-55.03
1351.383,-55.11
1351.398,-55.1
1351.413,-55.31
1351.428,-55.29
1351.443,-55.02
1351.458,-55.2
1351.473,-55.36
1351.488,-55.22
1351.503,-55.11
1351.518,-55.4
1351.533,-55.4
1351.548,-55.39
1351.563,-55.37
1351.578,-55.38
1351.593,-55.44
1351.608,-55.4
1351.623,-55.35
1351.638,-55.41
1351.653,-55.45
1351.668,-55.6
1351.683,-55.46
1351.698,-55.25
1351.713,-55.3
1351.728,-55.32
1351.743,-55.27
1351.758,-55.39
1351.773,-55.36
1351.788,-55.4
1351.803,-55.42
1351.818,-55.43
1351.833,-55.48
1351.848,-55.39
1351.863,-55.44
1351.878,-55.47
1351.893,-55.49
1351.908,-55.31
1351.923,-55.23
1351.938,-55.35
1351.953,-55.36
1351.968,-55.31
1351.983,-55.33
1351.998,-55.32
1352.013,-55.41
1352.028,-55.38
1352.043,-55.3
1352.058,-55.33
1352.073,-55.33
1352.088,-55.62
1352.103,-55.5
1352.118,-55.36
1352.133,-55.46
1352.148,-55.6
1352.163,-55.38
1352.178,-55.3
1352.193,-55.48
1352.208,-55.57
1352.223,-55.35
1352.238,-55.41
1352.253,-55.36
1352.268,-55.45
1352.283,-55.54
1352.298,-55.61
1352.313,-55.42
1352.328,-55.4
1352.343,-55.71
1352.358,-55.49
1352.373,-55.48
1352.388,-55.59
1352.403,-55.79
1352.418,-55.54
1352.433,-55.52
1352.448,-55.76
1352.463,-55.52
1352.478,-55.53
1352.493,-55.81
1352.508,-55.73
1352.523,-55.46
1352.538,-55.79
1352.553,-55.65
1352.568,-55.45
1352.583,-55.59
1352.598,-55.76
1352.613,-55.5
1352.628,-55.5
1352.643,-55.69
1352.658,-55.7
1352.673,-55.48
1352.688,-55.79
1352.703,-55.77
1352.718,-55.66
1352.733,-55.91
1352.748,-56.07
1352.763,-55.71
1352.778,-55.8
1352.793,-56.0
1352.808,-55.76
1352.823,-55.56
1352.838,-55.64
1352.853,-55.88
1352.868,-55.55
1352.883,-55.54
1352.898,-55.73
1352.913,-55.6
1352.928,-55.78
1352.943,-55.97
1352.958,-55.71
1352.973,-55.78
1352.988,-56.11
1353.003,-56.04
1353.018,-55.83
1353.033,-55.84
1353.048,-56.19
1353.063,-55.89
1353.078,-55.89
1353.093,-55.87
1353.108,-55.82
1353.123,-55.73
1353.138,-55.97
1353.153,-55.73
1353.168,-55.57
1353.183,-55.74
1353.198,-55.91
1353.213,-55.57
1353.228,-55.54
1353.243,-55.85
1353.258,-55.8
1353.273,-55.57
1353.288,-55.63
1353.303,-55.71
1353.318,-55.66
1353.333,-55.76
1353.348,-55.7
1353.363,-55.57
1353.378,-55.56
1353.393,-55.87
1353.408,-55.49
1353.423,-55.4
1353.438,-55.57
1353.453,-55.45
1353.468,-55.43
1353.483,-55.39
1353.498,-55.35
1353.513,-55.38
1353.528,-55.35
1353.543,-55.17
1353.558,-55.25
1353.573,-55.23
1353.588,-55.52
1353.603,-55.36
1353.618,-55.33
1353.633,-55.35
1353.648,-55.47
1353.663,-55.25
1353.678,-55.32
1353.693,-55.26
1353.708,-55.36
1353.723,-55.33
1353.738,-55.32
1353.753,-55.3
1353.768,-55.25
1353.783,-55.47
1353.798,-55.43
1353.813,-55.3
1353.828,-55.41
1353.843,-55.69
1353.858,-55.44
1353.873,-55.41
1353.888,-55.55
1353.903,-55.52
1353.918,-55.56
1353.933,-55.48
1353.948,-55.39
1353.963,-55.25
1353.978,-55.45
1353.993,-55.44
1354.008,-55.29
1354.023,-55.17
1354.038,-55.51
1354.053,-55.32
1354.068,-55.14
1354.083,-55.29
1354.098,-55.45
1354.113,-55.21
1354.128,-55.24
1354.143,-55.23
1354.158,-55.08
1354.173,-55.28
1354.188,-55.55
1354.203,-55.35
1354.218,-55.3
1354.233,-55.51
1354.248,-55.54
1354.263,-55.3
1354.278,-55.31
1354.293,-55.55
1354.308,-55.31
1354.323,-55.32
1354.338,-55.52
1354.353,-55.3
1354.368,-55.26
1354.383,-55.54
1354.398,-55.37
1354.413,-55.24
1354.428,-55.44
1354.443,-55.59
1354.458,-55.45
1354.473,-55.54
1354.488,-55.81
1354.503,-55.63
1354.518,-55.6
1354.533,-55.94
1354.548,-55.93
1354.563,-55.65
1354.578,-55.91
1354.593,-55.78
1354.608,-55.55
1354.623,-55.55
1354.638,-55.78
1354.653,-55.57
1354.668,-55.51
1354.683,-55.7
1354.698,-55.56
1354.713,-55.41
1354.728,-55.71
1354.743,-55.74
1354.758,-55.4
1354.773,-55.55
1354.788,-55.58
1354.803,-55.39
1354.818,-55.46
1354.833,-55.68
1354.848,-55.5
1354.863,-55.38
1354.878,-55.71
1354.893,-55.58
1354.908,-55.43
1354.923,-55.54
1354.938,-55.75
1354.953,-55.55
1354.968,-55.73
1354.983,-55.97
1354.998,-55.7
1355.013,-55.54
1355.028,-55.89
1355.043,-55.9
1355.058,-55.63
1355.073,-55.92
1355.088,-55.94
1355.103,-55.63
1355.118,-55.78
1355.133,-56.08
1355.148,-55.81
1355.163,-55.9
1355.178,-56.12
1355.193,-55.79
1355.208,-55.61
1355.223,-55.8
1355.238,-55.89
1355.253,-55.64
1355.268,-55.9
1355.283,-56.0
1355.298,-55.68
1355.313,-55.81
1355.328,-55.93
1355.343,-55.66
1355.358,-55.8
1355.373,-56.11
1355.388,-56.05
1355.403,-55.75
1355.418,-55.94
1355.433,-56.19
1355.448,-55.87
1355.463,-56.08
1355.478,-56.17
1355.493,-55.88
1355.508,-55.95
1355.523,-56.18
1355.538,-55.85
1355.553,-55.75
1355.568,-56.03
1355.583,-55.99
1355.598,-55.63
1355.613,-55.78
1355.628,-55.77
1355.643,-55.6
1355.658,-55.76
1355.673,-55.98
1355.688,-55.76
1355.703,-55.86
1355.718,-56.22
1355.733,-55.9
1355.748,-55.77
1355.763,-56.01
1355.778,-56.18
1355.793,-55.88
1355.808,-55.85
1355.823,-55.9
1355.838,-55.63
1355.853,-55.59
1355.868,-55.85
1355.883,-55.52
1355.898,-55.54
1355.913,-55.81
1355.928,-55.75
1355.943,-55.47
1355.958,-55.58
1355.973,-55.79
1355.988,-55.44
1356.003,-55.66
1356.018,-55.88
1356.033,-55.65
1356.048,-55.48
1356.063,-55.81
1356.078,-55.52
1356.093,-55.47
1356.108,-55.71
1356.123,-55.71
1356.138,-55.49
1356.153,-55.62
1356.168,-55.97
1356.183,-55.66
1356.198,-55.75
1356.213,-56.02
1356.228,-55.81
1356.243,-55.63
1356.258,-55.96
1356.273,-55.71
1356.288,-55.61
1356.303,-55.91
1356.318,-55.94
1356.333,-55.72
1356.348,-55.8
1356.363,-56.01
1356.378,-55.75
1356.393,-55.65
1356.408,-55.99
1356.423,-55.94
1356.438,-55.69
1356.453,-56.05
1356.468,-55.84
1356.483,-55.67
1356.498,-55.77
1356.513,-55.96
1356.528,-55.58
1356.543,-55.56
1356.558,-55.81
1356.573,-55.6
1356.588,-55.54
1356.603,-55.96
1356.618,-55.8
1356.633,-55.8
1356.648,-56.1
1356.663,-56.03
1356.678,-55.74
1356.693,-55.85
1356.708,-56.08
1356.723,-55.78
1356.738,-55.66
1356.753,-55.9
1356.768,-55.75
1356.783,-55.55
1356.798,-55.8
1356.813,-55.82
1356.828,-55.67
1356.843,-55.9
1356.858,-56.06
1356.873,-55.8
1356.888,-55.83
1356.903,-56.22
1356.918,-55.98
1356.933,-55.94
1356.948,-56.17
1356.963,-56.09
1356.978,-55.91
1356.993,-56.24
1357.008,-56.03
1357.023,-55.8
1357.038,-55.95
1357.053,-56.24
1357.068,-55.88
1357.083,-55.89
1357.098,-56.24
1357.113,-56.21
1357.128,-56.09
1357.143,-56.35
1357.158,-56.32
1357.173,-55.98
1357.188,-56.2
1357.203,-56.26
1357.219,-55.9
1357.233,-56.06
1357.248,-56.44
1357.263,-56.14
1357.278,-55.96
1357.293,-56.08
1357.308,-55.9
1357.323,-55.72
1357.339,-55.95
1357.354,-55.97
1357.369,-55.62
1357.383,-55.75
1357.398,-55.99
1357.413,-55.68
1357.428,-55.65
1357.443,-55.92
1357.458,-55.81
1357.474,-55.57
1357.489,-55.95
1357.504,-55.93
1357.518,-55.69
1357.533,-55.92
1357.548,-56.09
1357.563,-55.88
1357.578,-55.96
1357.594,-56.2
1357.609,-55.81
1357.624,-55.75
1357.639,-56.01
1357.654,-55.82
1357.668,-55.68
1357.683,-55.98
1357.698,-55.97
1357.714,-55.7
1357.729,-55.76
1357.744,-56.11
1357.759,-55.83
1357.774,-55.86
1357.789,-56.23
1357.803,-55.86
1357.818,-55.9
1357.833,-56.22
1357.849,-56.09
1357.864,-55.88
1357.879,-56.13
1357.894,-56.21
1357.909,-55.84
1357.924,-55.91
1357.939,-56.05
1357.953,-55.79
1357.969,-56.09
1357.984,-56.19
1357.999,-55.86
1358.014,-55.94
1358.029,-56.14
1358.044,-56.09
1358.059,-55.84
1358.074,-56.08
1358.089,-56.24
1358.104,-55.92
1358.119,-56.02
1358.134,-55.99
1358.149,-55.72
1358.164,-55.89
1358.179,-55.94
1358.194,-55.73
1358.209,-55.61
1358.224,-55.85
1358.239,-55.82
1358.254,-55.6
1358.269,-55.71
1358.284,-55.69
1358.299,-55.72
1358.314,-55.94
1358.329,-55.93
1358.344,-55.7
1358.359,-55.86
1358.374,-56.09
1358.389,-56.0
1358.404,-55.73
1358.419,-55.98
1358.434,-55.98
1358.449,-56.01
1358.464,-55.86
1358.479,-55.91
1358.494,-55.69
1358.509,-55.91
1358.524,-55.9
1358.539,-55.68
1358.554,-55.56
1358.569,-55.78
1358.584,-55.78
1358.599,-55.76
1358.614,-55.66
1358.629,-55.75
1358.644,-55.66
1358.659,-55.9
1358.674,-55.86
1358.689,-55.63
1358.704,-55.84
1358.719,-56.0
1358.734,-55.81
1358.749,-55.82
1358.764,-55.75
1358.779,-55.79
1358.794,-55.68
1358.809,-55.8
1358.824,-55.68
1358.839,-55.56
1358.854,-55.82
1358.869,-55.84
1358.884,-55.56
1358.899,-55.65
1358.914,-55.59
1358.929,-55.61
1358.944,-55.59
1358.959,-55.64
1358.974,-55.39
1358.989,-55.53
1359.004,-55.71
1359.019,-55.55
1359.034,-55.44
1359.049,-55.72
1359.064,-55.62
1359.079,-55.58
1359.094,-55.54
1359.109,-55.63
1359.124,-55.47
1359.139,-55.59
1359.154,-55.68
1359.169,-55.42
1359.184,-55.56
1359.199,-55.76
1359.214,-55.68
1359.229,-55.74
1359.244,-55.74
1359.259,-55.73
1359.274,-55.72
1359.289,-55.87
1359.304,-55.82
1359.319,-55.65
1359.334,-55.8
1359.349,-55.89
1359.364,-55.67
1359.379,-55.68
1359.394,-55.61
1359.409,-55.62
1359.424,-55.55
1359.439,-55.7
1359.454,-55.49
1359.469,-55.48
1359.484,-55.7
1359.499,-55.59
1359.514,-55.35
1359.529,-55.54
1359.544,-55.53
1359.559,-55.65
1359.574,-55.66
1359.589,-55.67
1359.604,-55.43
1359.619,-55.6
1359.634,-55.71
1359.649,-55.62
1359.664,-55.42
1359.679,-55.6
1359.694,-55.61
1359.709,-55.5
1359.724,-55.53
1359.739,-55.59
1359.754,-55.38
1359.769,-55.66
1359.784,-55.78
1359.799,-55.5
1359.814,-55.54
1359.829,-55.84
1359.844,-55.76
1359.859,-55.74
1359.874,-55.71
1359.889,-55.77
1359.904,-55.77
1359.919,-56.09
1359.934,-56.08
1359.949,-55.86
1359.964,-56.04
1359.979,-56.26
1359.994,-55.93
1360.009,-56.04
1360.024,-55.96
1360.039,-55.9
1360.054,-55.83
1360.069,-56.01
1360.084,-55.76
1360.099,-55.69
1360.114,-55.99
1360.129,-55.92
1360.144,-55.74
1360.159,-55.89
1360.174,-55.95
1360.189,-55.81
1360.204,-55.85
1360.219,-55.89
1360.234,-55.61
1360.249,-55.75
1360.264,-55.98
1360.279,-55.67
1360.294,-55.56
1360.309,-55.79
1360.324,-55.73
1360.339,-55.78
1360.354,-55.96
1360.369,-55.94
1360.384,-55.79
1360.399,-56.03
1360.414,-56.22
1360.429,-56.0
1360.444,-55.93
1360.459,-56.24
1360.474,-56.16
1360.489,-56.24
1360.504,-56.26
1360.519,-56.32
1360.534,-56.2
1360.549,-56.48
1360.564,-56.36
1360.579,-56.08
1360.594,-56.24
1360.609,-56.33
1360.624,-56.32
1360.639,-56.38
1360.654,-56.41
1360.669,-56.41
1360.684,-56.43
1360.699,-56.61
1360.714,-56.42
1360.729,-56.4
1360.744,-56.69
1360.759,-56.61
1360.774,-56.65
1360.789,-56.59
1360.804,-56.68
1360.819,-56.69
1360.834,-56.64
1360.849,-56.59
1360.864,-56.38
1360.879,-56.53
1360.894,-56.43
1360.909,-56.34
1360.924,-56.38
1360.939,-56.31
1360.954,-56.27
1360.969,-56.32
1360.984,-56.34
1360.999,-56.4
1361.014,-56.12
1361.029,-56.19
1361.044,-56.29
1361.059,-56.27
1361.074,-56.26
1361.089,-56.19
1361.104,-56.31
1361.119,-56.28
1361.134,-56.23
1361.149,-56.25
1361.164,-56.19
1361.179,-56.11
1361.194,-56.14
1361.209,-56.13
1361.224,-56.12
1361.239,-56.12
1361.254,-56.06
1361.269,-56.07
1361.284,-56.14
1361.299,-56.5
1361.314,-56.23
1361.329,-56.29
1361.344,-56.31
1361.359,-56.22
1361.374,-56.17
1361.389,-56.15
1361.404,-56.13
1361.419,-56.1
1361.434,-56.21
1361.449,-56.4
1361.464,-56.12
1361.479,-56.05
1361.494,-55.96
1361.509,-56.01
1361.524,-56.0
1361.539,-56.02
1361.554,-56.0
1361.569,-55.82
1361.584,-56.05
1361.599,-56.0
1361.614,-55.89
1361.629,-55.88
1361.644,-55.9
1361.659,-55.83
1361.674,-55.9
1361.689,-55.89
1361.704,-55.63
1361.719,-55.79
1361.734,-55.97
1361.749,-55.61
1361.764,-55.66
1361.779,-55.58
1361.794,-55.63
1361.809,-55.57
1361.824,-55.63
1361.839,-55.39
1361.854,-55.36
1361.869,-55.57
1361.884,-55.46
1361.899,-55.5
1361.914,-55.52
1361.929,-55.58
1361.944,-55.53
1361.959,-55.52
1361.974,-55.61
1361.989,-55.36
1362.004,-55.4
1362.019,-55.58
1362.034,-55.63
1362.049,-55.67
1362.064,-55.6
1362.079,-55.61
1362.094,-55.6
1362.109,-55.87
1362.124,-55.69
1362.139,-55.53
1362.154,-55.71
1362.169,-55.72
1362.184,-55.7
1362.199,-55.71
1362.214,-55.79
1362.229,-55.76
1362.244,-55.88
1362.259,-56.1
1362.274,-55.82
1362.289,-55.88
1362.304,-55.83
1362.319,-55.87
1362.334,-55.77
1362.349,-55.77
1362.364,-55.77
1362.379,-55.68
1362.394,-55.92
1362.409,-55.88
1362.424,-55.66
1362.439,-55.7
1362.454,-55.73
1362.469,-55.64
1362.484,-55.73
1362.499,-55.69
1362.514,-55.51
1362.529,-55.62
1362.544,-55.85
1362.559,-55.61
1362.574,-55.7
1362.589,-55.76
1362.604,-55.82
1362.619,-55.77
1362.634,-55.8
1362.649,-55.77
1362.664,-55.64
1362.679,-55.78
1362.694,-55.83
1362.709,-55.82
1362.724,-55.77
1362.739,-55.76
1362.754,-55.83
1362.769,-55.85
1362.784,-55.81
1362.799,-55.58
1362.814,-55.61
1362.829,-55.83
1362.844,-55.82
1362.859,-55.87
1362.874,-55.77
1362.889,-55.85
1362.904,-55.85
1362.919,-55.9
1362.934,-55.7
1362.949,-55.55
1362.964,-55.83
1362.979,-55.7
1362.994,-55.63
1363.009,-55.66
1363.024,-55.74
1363.039,-55.66
1363.054,-55.61
1363.069,-55.82
1363.084,-55.47
1363.099,-55.58
1363.114,-55.65
1363.129,-55.5
1363.144,-55.6
1363.159,-55.6
1363.174,-55.67
1363.189,-55.65
1363.204,-55.95
1363.219,-55.79
1363.234,-55.64
1363.249,-55.71
1363.264,-55.71
1363.279,-55.63
1363.294,-55.65
1363.309,-55.62
1363.324,-55.61
1363.339,-55.74
1363.354,-56.02
1363.369,-55.68
1363.384,-55.73
1363.399,-55.87
1363.414,-55.88
1363.429,-55.82
1363.444,-55.83
1363.459,-55.81
1363.474,-55.7
1363.489,-55.95
1363.504,-55.97
1363.519,-55.89
1363.534,-55.83
1363.549,-55.84
1363.564,-55.69
1363.579,-55.7
1363.594,-55.69
1363.609,-55.46
1363.624,-55.41
1363.639,-55.73
1363.654,-55.49
1363.669,-55.49
1363.684,-55.59
1363.699,-55.53
1363.714,-55.51
1363.729,-55.71
1363.744,-55.55
1363.759,-55.34
1363.774,-55.47
1363.789,-55.65
1363.804,-55.56
1363.819,-55.58
1363.834,-55.47
1363.849,-55.46
1363.864,-55.52
1363.879,-55.73
1363.894,-55.52
1363.909,-55.45
1363.924,-55.68
1363.939,-55.68
1363.954,-55.72
1363.969,-55.58
1363.984,-55.78
1363.999,-55.81
1364.014,-56.07
1364.029,-55.96
1364.044,-55.76
1364.059,-55.83
1364.074,-55.92
1364.089,-55.97
1364.104,-56.02
1364.119,-55.84
1364.134,-55.9
1364.149,-55.92
1364.164,-56.21
1364.179,-56.01
1364.194,-55.89
1364.209,-55.81
1364.224,-55.91
1364.239,-55.85
1364.254,-55.81
1364.269,-55.74
1364.284,-55.66
1364.299,-55.87
1364.314,-56.01
1364.329,-55.74
1364.344,-55.73
1364.359,-55.61
1364.374,-55.71
1364.389,-55.7
1364.404,-55.56
1364.419,-55.3
1364.434,-55.33
1364.449,-55.62
1364.464,-55.54
1364.479,-55.56
1364.494,-55.48
1364.509,-55.5
1364.524,-55.54
1364.539,-55.62
1364.554,-55.62
1364.569,-55.5
1364.584,-55.66
1364.599,-55.92
1364.614,-55.81
1364.629,-55.92
1364.644,-55.82
1364.659,-55.92
1364.674,-55.95
1364.689,-56.12
1364.704,-55.88
1364.719,-55.79
1364.734,-55.82
1364.749,-55.84
1364.764,-55.82
1364.779,-55.82
1364.794,-55.65
1364.809,-55.61
1364.824,-55.82
1364.839,-55.95
1364.854,-55.77
1364.869,-55.72
1364.884,-55.75
1364.899,-55.78
1364.914,-55.95
1364.929,-56.06
1364.944,-55.83
1364.959,-55.88
1364.974,-56.22
1364.989,-55.94
1365.004,-55.83
1365.019,-55.74
1365.034,-55.51
1365.049,-55.54
1365.064,-55.86
1365.079,-55.61
1365.094,-55.49
1365.109,-55.59
1365.124,-55.78
1365.139,-55.56
1365.154,-55.79
1365.169,-55.56
1365.184,-55.35
1365.199,-55.47
1365.214,-55.72
1365.229,-55.42
1365.245,-55.43
1365.259,-55.7
1365.274,-55.43
1365.289,-55.6
1365.304,-55.76
1365.319,-55.47
1365.334,-55.44
1365.349,-55.66
1365.365,-55.59
1365.38,-55.42
1365.395,-55.71
1365.409,-55.62
1365.424,-55.6
1365.439,-55.85
1365.454,-55.84
1365.469,-55.52
1365.484,-55.57
1365.5,-55.84
1365.515,-55.56
1365.53,-55.71
1365.544,-55.86
1365.559,-55.66
1365.574,-55.82
1365.589,-56.03
1365.604,-55.66
1365.62,-55.54
1365.635,-55.7
1365.65,-55.52
1365.665,-55.42
1365.68,-55.69
1365.694,-55.38
1365.709,-55.31
1365.724,-55.63
1365.74,-55.66
1365.755,-55.53
1365.77,-55.87
1365.785,-55.78
1365.8,-55.64
1365.815,-55.89
1365.83,-55.96
1365.844,-55.6
1365.859,-55.63
1365.875,-55.78
1365.89,-55.5
1365.905,-55.5
1365.92,-55.59
1365.935,-55.32
1365.95,-55.29
1365.965,-55.52
1365.979,-55.23
1365.995,-55.19
1366.01,-55.47
1366.025,-55.33
1366.04,-55.35
1366.055,-55.68
1366.07,-55.57
1366.085,-55.36
1366.1,-55.72
1366.115,-55.69
1366.13,-55.46
1366.145,-55.75
1366.16,-55.62
1366.175,-55.42
1366.19,-55.5
1366.205,-55.79
1366.22,-55.46
1366.235,-55.63
1366.25,-55.81
1366.265,-55.54
1366.28,-55.62
1366.295,-55.84
1366.31,-55.56
1366.325,-55.48
1366.34,-55.75
1366.355,-55.5
1366.37,-55.49
1366.385,-55.69
1366.4,-55.53
1366.415,-55.42
1366.43,-55.58
1366.445,-55.67
1366.46,-55.43
1366.475,-55.69
1366.49,-55.71
1366.505,-55.43
1366.52,-55.69
1366.535,-55.61
1366.55,-55.47
1366.565,-55.42
1366.58,-55.4
1366.595,-55.16
1366.61,-55.31
1366.625,-55.49
1366.64,-55.39
1366.655,-55.44
1366.67,-55.69
1366.685,-55.48
1366.7,-55.65
1366.715,-55.93
1366.73,-55.67
1366.745,-55.51
1366.76,-55.72
1366.775,-55.44
1366.79,-55.41
1366.805,-55.59
1366.82,-55.39
1366.835,-55.24
1366.85,-55.52
1366.865,-55.51
1366.88,-55.35
1366.895,-55.54
1366.91,-55.72
1366.925,-55.51
1366.94,-55.67
1366.955,-55.84
1366.97,-55.52
1366.985,-55.72
1367.0,-55.96
1367.015,-55.65
1367.03,-55.59
1367.045,-55.86
1367.06,-55.56
1367.075,-55.48
1367.09,-55.81
1367.105,-55.42
1367.12,-55.41
1367.135,-55.65
1367.15,-55.54
1367.165,-55.37
1367.18,-55.77
1367.195,-55.72
1367.21,-55.46
1367.225,-55.75
1367.24,-55.63
1367.255,-55.4
1367.27,-55.47
1367.285,-55.76
1367.3,-55.46
1367.315,-55.58
1367.33,-55.8
1367.345,-55.58
1367.36,-55.66
1367.375,-55.87
1367.39,-55.73
1367.405,-55.56
1367.42,-55.86
1367.435,-55.72
1367.45,-55.54
1367.465,-55.83
1367.48,-55.64
1367.495,-55.56
1367.51,-55.69
1367.525,-55.76
1367.54,-55.57
1367.555,-55.81
1367.57,-55.83
1367.585,-55.7
1367.6,-56.0
1367.615,-56.0
1367.63,-55.79
1367.645,-56.06
1367.66,-56.15
1367.675,-55.72
1367.69,-55.76
1367.705,-55.86
1367.72,-55.59
1367.735,-55.58
1367.75,-55.81
1367.765,-55.52
1367.78,-55.6
1367.795,-55.84
1367.81,-55.69
1367.825,-55.7
1367.84,-55.95
1367.855,-55.61
1367.87,-55.65
1367.885,-56.02
1367.9,-55.96
1367.915,-55.67
1367.93,-55.92
1367.945,-55.8
1367.96,-55.7
1367.975,-55.98
1367.99,-55.86
1368.005,-55.58
1368.02,-55.71
1368.035,-55.96
1368.05,-55.63
1368.065,-56.06
1368.08,-55.97
1368.095,-55.63
1368.11,-55.79
1368.125,-56.1
1368.14,-55.83
1368.155,-55.68
1368.17,-56.0
1368.185,-55.57
1368.2,-55.7
1368.215,-56.02
1368.23,-55.76
1368.245,-55.56
1368.26,-55.87
1368.275,-55.95
1368.29,-55.76
1368.305,-55.96
1368.32,-55.77
1368.335,-55.59
1368.35,-55.73
1368.365,-55.89
1368.38,-55.61
1368.395,-55.76
1368.41,-55.78
1368.425,-55.58
1368.44,-55.81
1368.455,-56.12
1368.47,-55.73
1368.485,-55.73
1368.5,-55.8
1368.515,-55.71
1368.53,-55.64
1368.545,-55.74
1368.56,-55.41
1368.575,-55.42
1368.59,-55.8
1368.605,-55.65
1368.62,-55.56
1368.635,-55.73
1368.65,-55.46
1368.665,-55.43
1368.68,-55.88
1368.695,-55.83
1368.71,-55.54
1368.725,-55.64
1368.74,-55.65
1368.755,-55.53
1368.77,-55.85
1368.785,-55.76
1368.8,-55.45
1368.815,-55.53
1368.83,-55.86
1368.845,-55.49
1368.86,-55.9
1368.875,-55.84
1368.89,-55.45
1368.905,-55.48
1368.92,-55.86
1368.935,-55.61
1368.95,-55.51
1368.965,-55.69
1368.98,-55.39
1368.995,-55.46
1369.01,-55.82
1369.025,-55.59
1369.04,-55.39
1369.055,-55.79
1369.07,-55.61
1369.085,-55.45
1369.1,-55.88
1369.115,-55.77
1369.13,-55.52
1369.145,-55.7
1369.16,-55.87
1369.175,-55.48
1369.19,-55.54
1369.205,-55.83
1369.22,-55.45
1369.235,-55.6
1369.25,-55.87
1369.265,-55.63
1369.28,-55.61
1369.295,-55.77
1369.31,-55.66
1369.325,-55.61
1369.34,-55.88
1369.355,-55.69
1369.37,-55.56
1369.385,-55.86
1369.4,-55.66
1369.415,-55.58
1369.43,-55.7
1369.445,-55.76
1369.46,-55.47
1369.475,-55.79
1369.49,-55.76
1369.505,-55.6
1369.52,-55.84
1369.535,-55.95
1369.55,-55.8
1369.565,-56.08
1369.58,-56.11
1369.595,-55.72
1369.61,-55.77
1369.625,-55.88
1369.64,-55.68
1369.655,-55.65
1369.67,-55.7
1369.685,-55.33
1369.7,-55.33
1369.715,-55.63
1369.73,-55.45
1369.745,-55.44
1369.76,-55.66
1369.775,-55.35
1369.79,-55.39
1369.805,-55.7
1369.82,-55.6
1369.835,-55.29
1369.85,-55.7
1369.865,-55.54
1369.88,-55.55
1369.895,-55.94
1369.91,-55.93
1369.925,-55.63
1369.94,-55.79
1369.955,-55.99
1369.97,-55.72
1369.985,-55.8
1370.0,-55.82
