wavelength_axis,light_level
1250.0,-55.62
1250.015,-55.48
1250.03,-55.42
1250.045,-55.57
1250.06,-55.57
1250.075,-55.68
1250.09,-55.46
1250.105,-55.53
1250.12,-55.49
1250.135,-55.67
1250.15,-55.59
1250.165,-55.6
1250.18,-55.28
1250.195,-55.4
1250.21,-55.55
1250.225,-55.53
1250.24,-55.47
1250.255,-55.27
1250.27,-55.24
1250.285,-55.35
1250.3,-55.55
1250.315,-55.3
1250.33,-55.28
1250.345,-55.11
1250.36,-55.31
1250.375,-55.34
1250.39,-55.33
1250.405,-55.17
1250.42,-55.17
1250.435,-55.23
1250.45,-55.41
1250.465,-55.47
1250.48,-55.29
1250.495,-55.4
1250.51,-55.45
1250.525,-55.49
1250.54,-55.46
1250.555,-55.48
1250.57,-55.34
1250.585,-55.47
1250.6,-55.41
1250.615,-55.54
1250.63,-55.47
1250.645,-55.59
1250.66,-55.38
1250.675,-55.48
1250.69,-55.5
1250.705,-55.53
1250.72,-55.5
1250.735,-55.34
1250.75,-55.52
1250.765,-55.41
1250.78,-55.48
1250.795,-55.33
1250.81,-55.48
1250.825,-55.39
1250.84,-55.55
1250.855,-55.52
1250.87,-55.56
1250.885,-55.5
1250.9,-55.48
1250.915,-55.43
1250.93,-55.65
1250.945,-55.6
1250.96,-55.45
1250.975,-55.53
1250.99,-55.54
1251.005,-55.54
1251.02,-55.55
1251.035,-55.51
1251.05,-55.46
1251.065,-55.58
1251.08,-55.42
1251.095,-55.46
1251.11,-55.41
1251.125,-55.48
1251.14,-55.43
1251.155,-55.52
1251.17,-55.45
1251.185,-55.64
1251.2,-55.5
1251.215,-55.51
1251.23,-55.6
1251.245,-55.61
1251.26,-55.68
1251.275,-55.51
1251.29,-55.56
1251.305,-55.48
1251.32,-55.57
1251.335,-55.56
1251.35,-55.69
1251.365,-55.46
1251.38,-55.57
1251.395,-55.6
1251.41,-55.82
1251.425,-55.65
1251.44,-55.54
1251.455,-55.53
1251.47,-55.75
1251.485,-55.72
1251.5,-55.48
1251.515,-55.4
1251.53,-55.35
1251.545,-55.52
1251.56,-55.52
1251.575,-55.53
1251.59,-55.4
1251.605,-55.45
1251.62,-55.43
1251.635,-55.59
1251.65,-55.47
1251.665,-55.47
1251.68,-55.5
1251.695,-55.63
1251.71,-55.64
1251.725,-55.64
1251.74,-55.76
1251.755,-55.62
1251.77,-55.82
1251.785,-55.75
1251.8,-55.77
1251.815,-55.54
1251.83,-55.56
1251.845,-55.55
1251.86,-55.73
1251.875,-55.73
1251.89,-55.76
1251.905,-55.84
1251.92,-55.87
1251.935,-55.79
1251.95,-55.76
1251.965,-55.88
1251.98,-55.65
1251.995,-55.65
1252.01,-55.67
1252.025,-55.61
1252.04,-55.6
1252.055,-55.54
1252.07,-55.59
1252.085,-55.59
1252.1,-55.68
1252.115,-55.63
1252.13,-55.61
1252.145,-55.43
1252.16,-55.51
1252.175,-55.51
1252.19,-55.42
1252.205,-55.46
1252.22,-55.47
1252.235,-55.49
1252.25,-55.41
1252.265,-55.47
1252.28,-55.59
1252.295,-55.56
1252.31,-55.48
1252.325,-55.53
1252.34,-55.47
1252.355,-55.45
1252.37,-55.46
1252.385,-55.48
1252.4,-55.51
1252.415,-55.28
1252.43,-55.35
1252.445,-55.44
1252.46,-55.49
1252.475,-55.24
1252.49,-55.32
1252.505,-55.29
1252.52,-55.37
1252.535,-55.47
1252.55,-55.51
1252.565,-55.47
1252.58,-55.45
1252.595,-55.57
1252.61,-55.52
1252.625,-55.62
1252.64,-55.39
1252.655,-55.35
1252.67,-55.36
1252.685,-55.37
1252.7,-55.29
1252.715,-55.38
1252.73,-55.4
1252.745,-55.36
1252.76,-55.52
1252.775,-55.45
1252.79,-55.49
1252.805,-55.4
1252.82,-55.62
1252.835,-55.52
1252.85,-55.55
1252.865,-55.37
1252.88,-55.43
1252.895,-55.4
1252.91,-55.35
1252.925,-55.44
1252.94,-55.4
1252.955,-55.39
1252.97,-55.31
1252.985,-55.55
1253.0,-55.46
1253.015,-55.62
1253.03,-55.59
1253.045,-55.59
1253.06,-55.63
1253.075,-55.61
1253.09,-55.71
1253.105,-55.59
1253.12,-55.63
1253.135,-55.6
1253.15,-55.86
1253.165,-55.79
1253.18,-55.8
1253.195,-55.78
1253.21,-55.92
1253.225,-55.88
1253.24,-55.92
1253.255,-55.94
1253.271,-55.86
1253.285,-55.79
1253.3,-55.75
1253.315,-55.86
1253.33,-55.6
1253.345,-55.69
1253.36,-55.6
1253.375,-55.78
1253.391,-55.66
1253.406,-55.7
1253.421,-55.71
1253.435,-55.77
1253.45,-55.77
1253.465,-55.74
1253.48,-55.76
1253.495,-55.6
1253.51,-55.67
1253.526,-55.64
1253.541,-55.75
1253.556,-55.51
1253.571,-55.54
1253.585,-55.49
1253.6,-55.5
1253.615,-55.62
1253.63,-55.61
1253.646,-55.55
1253.661,-55.46
1253.676,-55.56
1253.691,-55.56
1253.706,-55.54
1253.72,-55.28
1253.735,-55.27
1253.75,-55.29
1253.766,-55.29
1253.781,-55.23
1253.796,-55.28
1253.811,-55.28
1253.826,-55.18
1253.841,-55.46
1253.856,-55.42
1253.87,-55.47
1253.885,-55.26
1253.901,-55.35
1253.916,-55.4
1253.931,-55.38
1253.946,-55.21
1253.961,-55.22
1253.976,-55.22
1253.991,-55.23
1254.005,-55.35
1254.021,-55.23
1254.036,-55.13
1254.051,-55.18
1254.066,-55.38
1254.081,-55.3
1254.096,-55.36
1254.111,-55.27
1254.126,-55.33
1254.141,-55.36
1254.156,-55.33
1254.171,-55.26
1254.186,-55.3
1254.201,-55.27
1254.216,-55.28
1254.231,-55.44
1254.246,-55.34
1254.261,-55.4
1254.276,-55.34
1254.291,-55.42
1254.306,-55.45
1254.321,-55.48
1254.336,-55.47
1254.351,-55.4
1254.366,-55.42
1254.381,-55.34
1254.396,-55.52
1254.411,-55.56
1254.426,-55.53
1254.441,-55.49
1254.456,-55.68
1254.471,-55.51
1254.486,-55.62
1254.501,-55.59
1254.516,-55.64
1254.531,-55.63
1254.546,-55.52
1254.561,-55.59
1254.576,-55.45
1254.591,-55.52
1254.606,-55.49
1254.621,-55.56
1254.636,-55.37
1254.651,-55.41
1254.666,-55.41
1254.681,-55.54
1254.696,-55.47
1254.711,-55.52
1254.726,-55.54
1254.741,-55.53
1254.756,-55.54
1254.771,-55.54
1254.786,-55.59
1254.801,-55.36
1254.816,-55.5
1254.831,-55.47
1254.846,-55.45
1254.861,-55.53
1254.876,-55.53
1254.891,-55.61
1254.906,-55.55
1254.921,-55.76
1254.936,-55.66
1254.951,-55.75
1254.966,-55.61
1254.981,-55.71
1254.996,-55.55
1255.011,-55.61
1255.026,-55.52
1255.041,-55.69
1255.056,-55.66
1255.071,-55.56
1255.086,-55.7
1255.101,-55.58
1255.116,-55.67
1255.131,-55.59
1255.146,-55.63
1255.161,-55.59
1255.176,-55.67
1255.191,-55.52
1255.206,-55.62
1255.221,-55.63
1255.236,-55.58
1255.251,-55.56
1255.266,-55.63
1255.281,-55.62
1255.296,-55.57
1255.311,-55.7
1255.326,-55.56
1255.341,-55.61
1255.356,-55.54
1255.371,-55.65
1255.386,-55.69
1255.401,-55.66
1255.416,-55.52
1255.431,-55.41
1255.446,-55.45
1255.461,-55.41
1255.476,-55.68
1255.491,-55.6
1255.506,-55.61
1255.521,-55.56
1255.536,-55.74
1255.551,-55.74
1255.566,-55.77
1255.581,-55.73
1255.596,-55.64
1255.611,-55.65
1255.626,-55.62
1255.641,-55.76
1255.656,-55.53
1255.671,-55.59
1255.686,-55.52
1255.701,-55.67
1255.716,-55.61
1255.731,-55.67
1255.746,-55.62
1255.761,-55.71
1255.776,-55.87
1255.791,-55.77
1255.806,-55.87
1255.821,-55.71
1255.836,-55.89
1255.851,-55.88
1255.866,-55.93
1255.881,-55.71
1255.896,-55.62
1255.911,-55.73
1255.926,-55.63
1255.941,-55.73
1255.956,-55.47
1255.971,-55.54
1255.986,-55.48
1256.001,-55.7
1256.016,-55.68
1256.031,-55.69
1256.046,-55.46
1256.061,-55.54
1256.076,-55.82
1256.091,-55.84
1256.106,-55.71
1256.121,-55.52
1256.136,-55.66
1256.151,-55.67
1256.166,-55.85
1256.181,-55.7
1256.196,-55.55
1256.211,-55.53
1256.226,-55.62
1256.241,-55.79
1256.256,-55.61
1256.271,-55.38
1256.286,-55.31
1256.301,-55.53
1256.316,-55.63
1256.331,-55.67
1256.346,-55.45
1256.361,-55.54
1256.376,-55.66
1256.391,-55.86
1256.406,-55.92
1256.421,-55.63
1256.436,-55.75
1256.451,-55.83
1256.466,-56.01
1256.481,-55.84
1256.496,-55.57
1256.511,-55.41
1256.526,-55.53
1256.541,-55.61
1256.556,-55.54
1256.571,-55.39
1256.586,-55.26
1256.601,-55.48
1256.616,-55.75
1256.631,-55.84
1256.646,-55.53
1256.661,-55.57
1256.676,-55.79
1256.691,-55.92
1256.706,-56.01
1256.721,-55.86
1256.736,-55.69
1256.751,-55.67
1256.766,-55.99
1256.781,-55.96
1256.796,-55.97
1256.811,-55.79
1256.826,-55.82
1256.841,-55.95
1256.856,-56.07
1256.871,-55.96
1256.886,-55.82
1256.901,-55.84
1256.916,-55.84
1256.931,-56.02
1256.946,-55.77
1256.961,-55.76
1256.976,-55.64
1256.991,-55.75
1257.006,-55.94
1257.021,-55.97
1257.036,-55.84
1257.051,-55.81
1257.066,-56.02
1257.081,-55.89
1257.096,-55.88
1257.111,-55.77
1257.126,-55.81
1257.141,-55.73
1257.156,-55.95
1257.171,-55.85
1257.186,-55.67
1257.201,-55.77
1257.216,-55.73
1257.231,-55.84
1257.246,-55.61
1257.261,-55.77
1257.276,-55.68
1257.291,-55.85
1257.306,-55.74
1257.321,-55.8
1257.336,-55.67
1257.351,-55.67
1257.366,-55.71
1257.381,-55.58
1257.396,-55.69
1257.411,-55.54
1257.426,-55.68
1257.441,-55.51
1257.456,-55.65
1257.471,-55.67
1257.486,-55.72
1257.501,-55.67
1257.516,-55.77
1257.531,-56.04
1257.546,-55.99
1257.561,-55.98
1257.576,-55.8
1257.591,-55.95
1257.606,-55.91
1257.621,-55.99
1257.636,-55.76
1257.651,-55.77
1257.666,-55.77
1257.681,-55.64
1257.696,-55.75
1257.711,-55.51
1257.726,-55.53
1257.741,-55.45
1257.756,-55.74
1257.771,-55.71
1257.786,-55.7
1257.801,-55.48
1257.816,-55.5
1257.831,-55.68
1257.846,-55.65
1257.861,-55.63
1257.876,-55.38
1257.891,-55.49
1257.906,-55.44
1257.921,-55.73
1257.936,-55.59
1257.951,-55.44
1257.966,-55.43
1257.981,-55.6
1257.996,-55.89
1258.011,-55.62
1258.026,-55.48
1258.041,-55.26
1258.056,-55.49
1258.071,-55.55
1258.086,-55.7
1258.101,-55.46
1258.116,-55.42
1258.131,-55.61
1258.146,-55.78
1258.161,-55.78
1258.176,-55.52
1258.191,-55.59
1258.206,-55.58
1258.221,-55.86
1258.236,-55.78
1258.251,-55.68
1258.266,-55.55
1258.281,-55.6
1258.296,-55.75
1258.311,-55.86
1258.326,-55.72
1258.341,-55.51
1258.356,-55.61
1258.371,-55.8
1258.386,-56.11
1258.401,-55.8
1258.416,-55.63
1258.431,-55.65
1258.446,-55.88
1258.461,-55.92
1258.476,-55.68
1258.491,-55.51
1258.506,-55.49
1258.521,-55.76
1258.536,-55.62
1258.551,-55.38
1258.566,-55.28
1258.581,-55.36
1258.596,-55.59
1258.611,-55.65
1258.626,-55.48
1258.641,-55.35
1258.656,-55.37
1258.671,-55.61
1258.686,-55.82
1258.701,-55.66
1258.716,-55.62
1258.731,-55.7
1258.746,-55.82
1258.761,-55.92
1258.776,-55.67
1258.791,-55.51
1258.806,-55.5
1258.821,-55.65
1258.836,-55.62
1258.851,-55.43
1258.866,-55.32
1258.881,-55.39
1258.896,-55.51
1258.911,-55.55
1258.926,-55.5
1258.941,-55.35
1258.956,-55.5
1258.971,-55.77
1258.986,-55.93
1259.001,-55.66
1259.016,-55.6
1259.031,-55.67
1259.046,-55.86
1259.061,-56.0
1259.076,-55.8
1259.091,-55.51
1259.106,-55.5
1259.121,-55.69
1259.136,-55.75
1259.151,-55.55
1259.166,-55.39
1259.181,-55.46
1259.196,-55.6
1259.211,-55.73
1259.226,-55.71
1259.241,-55.56
1259.256,-55.64
1259.271,-55.86
1259.286,-56.04
1259.301,-55.86
1259.316,-55.76
1259.331,-55.74
1259.346,-55.91
1259.361,-56.12
1259.376,-55.96
1259.391,-55.58
1259.406,-55.59
1259.421,-55.77
1259.436,-55.91
1259.451,-55.71
1259.466,-55.58
1259.481,-55.55
1259.496,-55.65
1259.511,-55.86
1259.526,-55.92
1259.541,-55.77
1259.556,-55.76
1259.571,-56.01
1259.586,-56.14
1259.601,-56.05
1259.616,-55.86
1259.631,-55.8
1259.646,-55.9
1259.661,-56.18
1259.676,-56.05
1259.691,-55.78
1259.706,-55.56
1259.721,-55.74
1259.736,-55.94
1259.751,-55.84
1259.766,-55.68
1259.781,-55.69
1259.796,-55.73
1259.811,-55.98
1259.826,-56.09
1259.841,-55.85
1259.856,-55.92
1259.871,-56.06
1259.886,-56.17
1259.901,-56.08
1259.916,-55.98
1259.931,-55.87
1259.946,-55.92
1259.961,-56.15
1259.976,-56.06
1259.991,-55.72
1260.006,-55.66
1260.021,-55.82
1260.036,-55.95
1260.051,-55.91
1260.066,-55.82
1260.081,-55.72
1260.096,-55.82
1260.111,-56.02
1260.126,-56.1
1260.141,-55.87
1260.156,-55.8
1260.171,-55.93
1260.186,-56.02
1260.201,-56.14
1260.216,-56.01
1260.231,-55.78
1260.246,-55.73
1260.261,-55.88
1260.276,-55.86
1260.291,-55.57
1260.306,-55.51
1260.321,-55.56
1260.336,-55.77
1260.351,-55.8
1260.366,-55.71
1260.381,-55.53
1260.396,-55.66
1260.411,-56.0
1260.426,-56.13
1260.441,-55.88
1260.456,-55.85
1260.471,-55.89
1260.486,-55.97
1260.501,-56.16
1260.516,-55.96
1260.531,-55.66
1260.546,-55.57
1260.561,-55.84
1260.576,-55.82
1260.591,-55.69
1260.606,-55.54
1260.621,-55.59
1260.636,-55.85
1260.651,-55.92
1260.666,-55.59
1260.681,-55.43
1260.696,-55.48
1260.711,-55.86
1260.726,-55.86
1260.741,-55.56
1260.756,-55.56
1260.771,-55.59
1260.786,-55.78
1260.801,-55.98
1260.816,-55.79
1260.831,-55.5
1260.846,-55.65
1260.861,-55.76
1260.876,-55.84
1260.891,-55.74
1260.906,-55.55
1260.921,-55.85
1260.936,-55.98
1260.951,-56.08
1260.966,-55.77
1260.981,-55.62
1260.996,-55.7
1261.011,-55.94
1261.026,-55.98
1261.041,-55.64
1261.056,-55.6
1261.071,-55.57
1261.086,-55.81
1261.101,-55.76
1261.116,-55.69
1261.131,-55.42
1261.146,-55.45
1261.161,-55.68
1261.176,-55.55
1261.191,-55.53
1261.206,-55.25
1261.221,-55.4
1261.236,-55.52
1261.251,-55.73
1261.266,-55.61
1261.281,-55.38
1261.297,-55.6
1261.312,-55.77
1261.326,-55.85
1261.341,-55.56
1261.356,-55.52
1261.371,-55.32
1261.386,-55.58
1261.401,-55.65
1261.417,-55.38
1261.432,-55.27
1261.447,-55.2
1261.461,-55.47
1261.476,-55.43
1261.491,-55.46
1261.506,-55.22
1261.521,-55.29
1261.536,-55.39
1261.552,-55.43
1261.567,-55.32
1261.582,-55.13
1261.597,-55.33
1261.611,-55.37
1261.626,-55.56
1261.641,-55.28
1261.656,-55.17
1261.672,-55.4
1261.687,-55.64
1261.702,-55.75
1261.717,-55.43
1261.732,-55.47
1261.746,-55.41
1261.761,-55.61
1261.776,-55.59
1261.792,-55.42
1261.807,-55.19
1261.822,-55.23
1261.837,-55.49
1261.852,-55.32
1261.867,-55.35
1261.882,-55.11
1261.896,-55.15
1261.911,-55.41
1261.927,-55.37
1261.942,-55.27
1261.957,-55.04
1261.972,-55.22
1261.987,-55.3
1262.002,-55.54
1262.017,-55.27
1262.031,-55.17
1262.047,-55.17
1262.062,-55.42
1262.077,-55.43
1262.092,-55.12
1262.107,-55.08
1262.122,-54.99
1262.137,-55.23
1262.152,-55.2
1262.167,-55.11
1262.182,-55.04
1262.197,-55.09
1262.212,-55.34
1262.227,-55.41
1262.242,-55.26
1262.257,-55.06
1262.272,-55.19
1262.287,-55.3
1262.302,-55.42
1262.317,-55.24
1262.332,-55.12
1262.347,-55.16
1262.362,-55.2
1262.377,-55.45
1262.392,-55.18
1262.407,-55.14
1262.422,-55.12
1262.437,-55.19
1262.452,-55.28
1262.467,-55.2
1262.482,-55.08
1262.497,-55.11
1262.512,-55.34
1262.527,-55.48
1262.542,-55.41
1262.557,-55.4
1262.572,-55.46
1262.587,-55.55
1262.602,-55.58
1262.617,-55.54
1262.632,-55.31
1262.647,-55.43
1262.662,-55.56
1262.677,-55.68
1262.692,-55.46
1262.707,-55.33
1262.722,-55.4
1262.737,-55.43
1262.752,-55.61
1262.767,-55.36
1262.782,-55.29
1262.797,-55.33
1262.812,-55.51
1262.827,-55.52
1262.842,-55.24
1262.857,-55.22
1262.872,-55.18
1262.887,-55.47
1262.902,-55.46
1262.917,-55.35
1262.932,-55.13
1262.947,-55.1
1262.962,-55.44
1262.977,-55.52
1262.992,-55.48
1263.007,-55.23
1263.022,-55.45
1263.037,-55.53
1263.052,-55.75
1263.067,-55.54
1263.082,-55.45
1263.097,-55.68
1263.112,-55.83
1263.127,-56.05
1263.142,-55.81
1263.157,-55.74
1263.172,-55.61
1263.187,-55.87
1263.202,-55.99
1263.217,-55.74
1263.232,-55.51
1263.247,-55.49
1263.262,-55.8
1263.277,-55.63
1263.292,-55.74
1263.307,-55.43
1263.322,-55.48
1263.337,-55.73
1263.352,-55.7
1263.367,-55.66
1263.382,-55.41
1263.397,-55.57
1263.412,-55.65
1263.427,-55.86
1263.442,-55.65
1263.457,-55.62
1263.472,-55.75
1263.487,-55.86
1263.502,-55.93
1263.517,-55.72
1263.532,-55.6
1263.547,-55.54
1263.562,-55.77
1263.577,-55.72
1263.592,-55.7
1263.607,-55.67
1263.622,-55.62
1263.637,-55.9
1263.652,-55.81
1263.667,-55.77
1263.682,-55.49
1263.697,-55.65
1263.712,-55.76
1263.727,-55.68
1263.742,-55.6
1263.757,-55.4
1263.772,-55.68
1263.787,-55.72
1263.802,-55.89
1263.817,-55.62
1263.832,-55.6
1263.847,-55.87
1263.862,-55.93
1263.877,-56.03
1263.892,-55.74
1263.907,-55.85
1263.922,-55.99
1263.937,-56.32
1263.952,-56.22
1263.967,-55.99
1263.982,-55.95
1263.997,-55.96
1264.012,-56.14
1264.027,-55.92
1264.042,-55.78
1264.057,-55.83
1264.072,-55.96
1264.087,-56.07
1264.102,-55.82
1264.117,-55.74
1264.132,-55.57
1264.147,-55.84
1264.162,-55.9
1264.177,-55.9
1264.192,-55.75
1264.207,-55.67
1264.222,-55.92
1264.237,-55.87
1264.252,-55.96
1264.267,-55.64
1264.282,-55.77
1264.297,-55.84
1264.312,-55.83
1264.327,-55.84
1264.342,-55.48
1264.357,-55.65
1264.372,-55.72
1264.387,-55.83
1264.402,-55.7
1264.417,-55.61
1264.432,-55.67
1264.447,-55.88
1264.462,-56.0
1264.477,-55.68
1264.492,-55.59
1264.507,-55.52
1264.522,-55.77
1264.537,-55.73
1264.552,-55.66
1264.567,-55.55
1264.582,-55.55
1264.597,-55.84
1264.612,-55.6
1264.627,-55.61
1264.642,-55.36
1264.657,-55.46
1264.672,-55.6
1264.687,-55.49
1264.702,-55.37
1264.717,-55.24
1264.732,-55.49
1264.747,-55.52
1264.762,-55.72
1264.777,-55.48
1264.792,-55.46
1264.807,-55.47
1264.822,-55.52
1264.837,-55.62
1264.852,-55.35
1264.867,-55.44
1264.882,-55.56
1264.897,-55.8
1264.912,-55.66
1264.927,-55.43
1264.942,-55.33
1264.957,-55.44
1264.972,-55.7
1264.987,-55.46
1265.002,-55.36
1265.017,-55.19
1265.032,-55.38
1265.047,-55.56
1265.062,-55.32
1265.077,-55.22
1265.092,-55.12
1265.107,-55.36
1265.122,-55.38
1265.137,-55.38
1265.152,-55.16
1265.167,-55.1
1265.182,-55.35
1265.197,-55.39
1265.212,-55.48
1265.227,-55.22
1265.242,-55.26
1265.257,-55.4
1265.272,-55.47
1265.287,-55.43
1265.302,-55.23
1265.317,-55.38
1265.332,-55.36
1265.347,-55.57
1265.362,-55.47
1265.377,-55.32
1265.392,-55.48
1265.407,-55.58
1265.422,-55.72
1265.437,-55.5
1265.452,-55.38
1265.467,-55.25
1265.482,-55.51
1265.497,-55.53
1265.512,-55.54
1265.527,-55.47
1265.542,-55.43
1265.557,-55.71
1265.572,-55.62
1265.587,-55.53
1265.602,-55.34
1265.617,-55.49
1265.632,-55.61
1265.647,-55.54
1265.662,-55.44
1265.677,-55.26
1265.692,-55.57
1265.707,-55.64
1265.722,-55.75
1265.737,-55.48
1265.752,-55.56
1265.767,-55.66
1265.782,-55.65
1265.797,-55.75
1265.812,-55.47
1265.827,-55.62
1265.842,-55.75
1265.857,-55.99
1265.872,-55.93
1265.887,-55.7
1265.902,-55.61
1265.917,-55.73
1265.932,-55.95
1265.947,-55.74
1265.962,-55.65
1265.977,-55.35
1265.992,-55.52
1266.007,-55.59
1266.022,-55.55
1266.037,-55.48
1266.052,-55.4
1266.067,-55.64
1266.082,-55.66
1266.097,-55.67
1266.112,-55.46
1266.127,-55.44
1266.142,-55.63
1266.157,-55.62
1266.172,-55.67
1266.187,-55.43
1266.202,-55.52
1266.217,-55.58
1266.232,-55.81
1266.247,-55.77
1266.262,-55.58
1266.277,-55.65
1266.292,-55.72
1266.307,-55.95
1266.322,-55.7
1266.337,-55.7
1266.352,-55.83
1266.367,-55.88
1266.382,-56.05
1266.397,-55.78
1266.412,-55.77
1266.427,-55.65
1266.442,-55.97
1266.457,-55.85
1266.472,-55.86
1266.487,-55.78
1266.502,-55.73
1266.517,-55.99
1266.532,-55.82
1266.547,-55.72
1266.562,-55.53
1266.577,-55.6
1266.592,-55.8
1266.607,-55.78
1266.622,-55.75
1266.637,-55.48
1266.652,-55.73
1266.667,-55.87
1266.682,-55.9
1266.697,-55.6
1266.712,-55.58
1266.727,-55.71
1266.742,-55.75
1266.757,-55.72
1266.772,-55.42
1266.787,-55.52
1266.802,-55.66
1266.817,-55.64
1266.832,-55.6
1266.847,-55.38
1266.862,-55.36
1266.877,-55.46
1266.892,-55.39
1266.907,-55.29
1266.922,-55.2
1266.937,-55.2
1266.952,-55.2
1266.967,-55.32
1266.982,-55.35
1266.997,-55.27
1267.012,-55.41
1267.027,-55.51
1267.042,-55.5
1267.057,-55.41
1267.072,-55.29
1267.087,-55.43
1267.102,-55.6
1267.117,-55.65
1267.132,-55.55
1267.147,-55.49
1267.162,-55.68
1267.177,-55.77
1267.192,-55.77
1267.207,-55.7
1267.222,-55.76
1267.237,-55.59
1267.252,-55.64
1267.267,-55.63
1267.282,-55.61
1267.297,-55.74
1267.312,-55.64
1267.327,-55.7
1267.342,-55.72
1267.357,-55.53
1267.372,-55.63
1267.387,-55.69
1267.402,-55.7
1267.417,-55.58
1267.432,-55.77
1267.447,-55.51
1267.462,-55.73
1267.477,-55.8
1267.492,-55.68
1267.507,-55.88
1267.522,-55.81
1267.537,-55.87
1267.552,-55.83
1267.567,-55.86
1267.582,-55.7
1267.597,-55.83
1267.612,-55.86
1267.627,-55.73
1267.642,-55.82
1267.657,-55.69
1267.672,-55.77
1267.687,-55.8
1267.702,-55.85
1267.717,-55.82
1267.732,-55.67
1267.747,-55.81
1267.762,-55.7
1267.777,-55.8
1267.792,-55.72
1267.807,-55.55
1267.822,-55.82
1267.837,-55.68
1267.852,-55.8
1267.867,-55.63
1267.882,-55.62
1267.897,-55.85
1267.912,-55.78
1267.927,-55.8
1267.942,-55.64
1267.957,-55.85
1267.972,-55.78
1267.987,-55.74
1268.002,-55.73
1268.017,-55.53
1268.032,-55.66
1268.047,-55.62
1268.062,-55.77
1268.077,-55.65
1268.092,-55.57
1268.107,-55.61
1268.122,-55.46
1268.137,-55.57
1268.152,-55.52
1268.167,-55.51
1268.182,-55.38
1268.197,-55.48
1268.212,-55.47
1268.227,-55.31
1268.242,-55.37
1268.257,-55.28
1268.272,-55.33
1268.287,-55.29
1268.302,-55.22
1268.317,-55.23
1268.332,-55.33
1268.347,-55.34
1268.362,-55.32
1268.377,-55.34
1268.392,-55.25
1268.407,-55.38
1268.422,-55.39
1268.437,-55.32
1268.452,-55.57
1268.467,-55.41
1268.482,-55.45
1268.497,-55.43
1268.512,-55.33
1268.527,-55.32
1268.542,-55.33
1268.557,-55.41
1268.572,-55.33
1268.587,-55.55
1268.602,-55.52
1268.617,-55.61
1268.632,-55.59
1268.647,-55.52
1268.662,-55.78
1268.677,-55.65
1268.692,-55.67
1268.707,-55.57
1268.722,-55.71
1268.737,-55.93
1268.752,-55.82
1268.767,-55.99
1268.782,-55.9
1268.797,-55.97
1268.812,-56.07
1268.827,-56.01
1268.842,-56.04
1268.857,-55.96
1268.872,-56.11
1268.887,-55.95
1268.902,-56.07
1268.917,-56.05
1268.932,-55.97
1268.947,-56.06
1268.962,-56.12
1268.977,-56.08
1268.992,-56.07
1269.007,-56.11
1269.022,-56.09
1269.037,-56.14
1269.052,-56.15
1269.067,-55.98
1269.082,-56.13
1269.097,-56.06
1269.112,-56.03
1269.127,-56.08
1269.142,-55.99
1269.157,-55.93
1269.172,-55.93
1269.188,-56.07
1269.202,-55.87
1269.217,-55.89
1269.232,-55.88
1269.247,-55.88
1269.262,-56.04
1269.277,-55.92
1269.292,-55.93
1269.307,-55.92
1269.323,-55.95
1269.338,-55.85
1269.352,-55.72
1269.367,-55.78
1269.382,-55.67
1269.397,-55.84
1269.412,-55.66
1269.427,-55.81
1269.443,-55.8
1269.458,-55.6
1269.473,-55.72
1269.487,-55.55
1269.502,-55.62
1269.517,-55.54
1269.532,-55.48
1269.547,-55.45
1269.563,-55.52
1269.578,-55.57
1269.593,-55.55
1269.608,-55.57
1269.623,-55.41
1269.637,-55.57
1269.652,-55.58
1269.667,-55.56
1269.682,-55.62
1269.698,-55.42
1269.713,-55.58
1269.728,-55.53
1269.743,-55.44
1269.758,-55.45
1269.772,-55.46
1269.787,-55.46
1269.802,-55.4
1269.818,-55.52
1269.833,-55.41
1269.848,-55.47
1269.863,-55.44
1269.878,-55.41
1269.893,-55.65
1269.908,-55.45
1269.922,-55.43
1269.938,-55.43
1269.953,-55.56
1269.968,-55.6
1269.983,-55.6
1269.998,-55.61
1270.013,-55.58
1270.028,-55.79
1270.043,-55.66
1270.058,-55.73
1270.073,-55.67
1270.088,-55.59
1270.103,-55.82
1270.118,-55.7
1270.133,-55.73
1270.148,-55.68
1270.163,-55.79
1270.178,-55.71
1270.193,-55.68
1270.208,-55.77
1270.223,-55.64
1270.238,-55.7
1270.253,-55.63
1270.268,-55.66
1270.283,-55.71
1270.298,-55.64
1270.313,-55.8
1270.328,-55.7
1270.343,-55.8
1270.358,-55.77
1270.373,-55.77
1270.388,-55.79
1270.403,-55.65
1270.418,-55.79
1270.433,-55.59
1270.448,-55.57
1270.463,-55.58
1270.478,-55.55
1270.493,-55.58
1270.508,-55.41
1270.523,-55.5
1270.538,-55.54
1270.553,-55.57
1270.568,-55.37
1270.583,-55.33
1270.598,-55.35
1270.613,-55.28
1270.628,-55.42
1270.643,-55.18
1270.658,-55.3
1270.673,-55.19
1270.688,-55.14
1270.703,-55.28
1270.718,-55.14
1270.733,-55.24
1270.748,-55.14
1270.763,-55.23
1270.778,-55.1
1270.793,-55.16
1270.808,-55.17
1270.823,-55.13
1270.838,-55.19
1270.853,-55.1
1270.868,-55.27
1270.883,-55.19
1270.898,-55.14
1270.913,-55.19
1270.928,-55.07
1270.943,-55.15
1270.958,-55.09
1270.973,-55.02
1270.988,-55.0
1271.003,-55.09
1271.018,-55.1
1271.033,-55.01
1271.048,-55.16
1271.063,-55.08
1271.078,-55.28
1271.093,-55.24
1271.108,-55.14
1271.123,-55.24
1271.138,-55.17
1271.153,-55.28
1271.168,-55.23
1271.183,-55.31
1271.198,-55.34
1271.213,-55.37
1271.228,-55.5
1271.243,-55.48
1271.258,-55.7
1271.273,-55.62
1271.288,-55.58
1271.303,-55.6
1271.318,-55.57
1271.333,-55.79
1271.348,-55.67
1271.363,-55.72
1271.378,-55.64
1271.393,-55.75
1271.408,-55.64
1271.423,-55.67
1271.438,-55.66
1271.453,-55.56
1271.468,-55.73
1271.483,-55.64
1271.498,-55.7
1271.513,-55.72
1271.528,-55.69
1271.543,-55.87
1271.558,-55.85
1271.573,-55.91
1271.588,-55.82
1271.603,-55.94
1271.618,-56.15
1271.633,-56.01
1271.648,-56.15
1271.663,-56.03
1271.678,-56.14
1271.693,-56.27
1271.708,-56.23
1271.723,-56.26
1271.738,-56.17
1271.753,-56.38
1271.768,-56.2
1271.783,-56.31
1271.798,-56.02
1271.813,-56.15
1271.828,-56.38
1271.843,-56.33
1271.858,-56.48
1271.873,-56.15
1271.888,-56.34
1271.903,-56.64
1271.918,-56.53
1271.933,-56.61
1271.948,-56.55
1271.963,-56.74
1271.978,-56.95
1271.993,-57.06
1272.008,-56.72
1272.023,-56.64
1272.038,-56.79
1272.053,-56.92
1272.068,-57.07
1272.083,-56.63
1272.098,-56.74
1272.113,-57.05
1272.128,-57.04
1272.143,-56.99
1272.158,-56.74
1272.173,-56.79
1272.188,-57.12
1272.203,-56.97
1272.218,-56.87
1272.233,-56.61
1272.248,-56.75
1272.263,-56.9
1272.278,-56.67
1272.293,-56.51
1272.308,-56.61
1272.323,-56.74
1272.338,-56.69
1272.353,-56.42
1272.368,-56.27
1272.383,-56.32
1272.398,-56.49
1272.413,-56.74
1272.428,-56.66
1272.443,-56.48
1272.458,-56.62
1272.473,-56.83
1272.488,-56.74
1272.503,-56.59
1272.518,-56.6
1272.533,-56.82
1272.548,-56.94
1272.563,-56.66
1272.578,-56.5
1272.593,-56.6
1272.608,-56.83
1272.623,-56.78
1272.638,-56.51
1272.653,-56.28
1272.668,-56.31
1272.683,-56.42
1272.698,-56.34
1272.713,-56.01
1272.728,-55.88
1272.743,-56.01
1272.758,-56.14
1272.773,-56.2
1272.788,-55.89
1272.803,-55.94
1272.818,-56.06
1272.833,-56.12
1272.848,-55.92
1272.863,-55.65
1272.878,-55.64
1272.893,-55.81
1272.908,-55.79
1272.923,-55.57
1272.938,-55.46
1272.953,-55.44
1272.968,-55.59
1272.983,-55.49
1272.998,-55.19
1273.013,-55.17
1273.028,-55.23
1273.043,-55.45
1273.058,-55.25
1273.073,-54.95
1273.088,-54.95
1273.103,-54.97
1273.118,-55.04
1273.133,-54.87
1273.148,-54.75
1273.163,-54.72
1273.178,-54.85
1273.193,-54.82
1273.208,-54.73
1273.223,-54.62
1273.238,-54.66
1273.253,-54.81
1273.268,-54.74
1273.283,-54.69
1273.298,-54.72
1273.313,-54.72
1273.328,-54.83
1273.343,-54.76
1273.358,-54.72
1273.373,-54.72
1273.388,-54.77
1273.403,-54.87
1273.418,-54.77
1273.433,-54.53
1273.448,-54.67
1273.463,-54.81
1273.478,-54.72
1273.493,-54.64
1273.508,-54.54
1273.523,-54.72
1273.538,-54.83
1273.553,-54.74
1273.568,-54.71
1273.583,-54.74
1273.598,-54.94
1273.613,-54.96
1273.628,-54.8
1273.643,-54.8
1273.658,-54.89
1273.673,-55.05
1273.688,-55.15
1273.703,-55.01
1273.718,-55.04
1273.733,-55.28
1273.748,-55.34
1273.763,-55.28
1273.778,-55.13
1273.793,-55.19
1273.808,-55.4
1273.823,-55.58
1273.838,-55.42
1273.853,-55.34
1273.868,-55.43
1273.883,-55.76
1273.898,-55.9
1273.913,-55.66
1273.928,-55.54
1273.943,-55.68
1273.958,-55.94
1273.973,-56.02
1273.988,-55.9
1274.003,-55.83
1274.018,-56.02
1274.033,-56.12
1274.048,-56.09
1274.063,-55.9
1274.078,-55.95
1274.093,-56.23
1274.108,-56.28
1274.123,-56.13
1274.138,-56.07
1274.153,-56.16
1274.168,-56.47
1274.183,-56.38
1274.198,-56.21
1274.213,-56.19
1274.228,-56.33
1274.243,-56.59
1274.258,-56.42
1274.273,-56.2
1274.288,-56.17
1274.303,-56.39
1274.318,-56.46
1274.333,-56.21
1274.348,-55.99
1274.363,-56.04
1274.378,-56.26
1274.393,-56.4
1274.408,-56.17
1274.423,-56.04
1274.438,-56.25
1274.453,-56.41
1274.468,-56.17
1274.483,-56.04
1274.498,-56.04
1274.513,-56.38
1274.528,-56.34
1274.543,-56.15
1274.558,-55.97
1274.573,-56.01
1274.588,-56.16
1274.603,-56.05
1274.618,-55.76
1274.633,-55.71
1274.648,-55.73
1274.663,-55.85
1274.678,-55.68
1274.693,-55.44
1274.708,-55.37
1274.723,-55.5
1274.738,-55.56
1274.753,-55.44
1274.768,-55.26
1274.783,-55.2
1274.798,-55.44
1274.813,-55.39
1274.828,-55.08
1274.843,-55.04
1274.858,-55.12
1274.873,-55.29
1274.888,-55.18
1274.903,-54.88
1274.918,-54.9
1274.933,-55.01
1274.948,-55.15
1274.963,-54.97
1274.978,-54.7
1274.993,-54.73
1275.008,-54.86
1275.023,-54.89
1275.038,-54.83
1275.053,-54.62
1275.068,-54.64
1275.083,-54.85
1275.098,-54.74
1275.113,-54.67
1275.128,-54.62
1275.143,-54.6
1275.158,-54.79
1275.173,-54.69
1275.188,-54.62
1275.203,-54.65
1275.218,-54.71
1275.233,-54.88
1275.248,-54.67
1275.263,-54.66
1275.278,-54.75
1275.293,-54.91
1275.308,-54.88
1275.323,-54.7
1275.338,-54.79
1275.353,-55.01
1275.368,-55.17
1275.383,-55.01
1275.398,-54.94
1275.413,-54.94
1275.428,-55.19
1275.443,-55.4
1275.458,-55.08
1275.473,-55.09
1275.488,-55.17
1275.503,-55.4
1275.518,-55.43
1275.533,-55.24
1275.548,-55.23
1275.563,-55.42
1275.578,-55.58
1275.593,-55.58
1275.608,-55.35
1275.623,-55.33
1275.638,-55.6
1275.653,-55.65
1275.668,-55.62
1275.683,-55.55
1275.698,-55.61
1275.713,-55.88
1275.728,-56.1
1275.743,-55.86
1275.758,-55.81
1275.773,-55.98
1275.788,-56.38
1275.803,-56.44
1275.818,-56.2
1275.833,-56.28
1275.848,-56.46
1275.863,-56.56
1275.878,-56.5
1275.893,-56.28
1275.908,-56.39
1275.923,-56.51
1275.938,-56.58
1275.953,-56.44
1275.968,-56.38
1275.983,-56.54
1275.998,-56.77
1276.013,-56.67
1276.028,-56.45
1276.043,-56.37
1276.058,-56.59
1276.073,-56.91
1276.088,-56.7
1276.103,-56.5
1276.118,-56.46
1276.133,-56.79
1276.148,-57.05
1276.163,-56.71
1276.178,-56.49
1276.193,-56.68
1276.208,-56.84
1276.223,-56.78
1276.238,-56.42
1276.253,-56.3
1276.268,-56.55
1276.283,-56.59
1276.298,-56.4
1276.313,-56.14
1276.328,-56.2
1276.343,-56.38
1276.358,-56.27
1276.373,-56.0
1276.388,-55.9
1276.403,-55.92
1276.418,-56.18
1276.433,-56.05
1276.448,-55.69
1276.463,-55.66
1276.478,-55.83
1276.493,-55.99
1276.508,-55.73
1276.523,-55.54
1276.538,-55.45
1276.553,-55.57
1276.568,-55.54
1276.583,-55.39
1276.598,-55.19
1276.613,-55.42
1276.628,-55.66
1276.643,-55.52
1276.658,-55.44
1276.673,-55.39
1276.688,-55.61
1276.703,-55.81
1276.718,-55.66
1276.733,-55.39
1276.748,-55.43
1276.763,-55.7
1276.778,-55.83
1276.793,-55.63
1276.808,-55.33
1276.823,-55.52
1276.838,-55.74
1276.853,-55.72
1276.868,-55.57
1276.883,-55.41
1276.898,-55.64
1276.913,-55.68
1276.928,-55.43
1276.943,-55.35
1276.958,-55.26
1276.973,-55.46
1276.988,-55.46
1277.003,-55.17
1277.018,-55.13
1277.033,-55.22
1277.048,-55.45
1277.063,-55.37
1277.078,-55.14
1277.093,-55.1
1277.108,-55.3
1277.123,-55.54
1277.138,-55.24
1277.153,-55.12
1277.168,-55.37
1277.183,-55.6
1277.198,-55.61
1277.214,-55.28
1277.228,-55.38
1277.243,-55.62
1277.258,-55.88
1277.273,-55.77
1277.288,-55.55
1277.303,-55.77
1277.318,-55.89
1277.333,-56.19
1277.349,-56.0
1277.364,-55.82
1277.378,-56.17
1277.393,-56.27
1277.408,-56.62
1277.423,-56.22
1277.438,-56.16
1277.453,-56.44
1277.469,-56.48
1277.484,-56.45
1277.499,-56.15
1277.514,-56.3
1277.528,-56.46
1277.543,-56.54
1277.558,-56.49
1277.573,-56.22
1277.589,-56.36
1277.604,-56.67
1277.619,-56.37
1277.634,-56.31
1277.649,-56.16
1277.663,-56.43
1277.678,-56.44
1277.693,-56.26
1277.708,-56.14
1277.724,-56.33
1277.739,-56.64
1277.754,-56.61
1277.769,-56.33
1277.784,-56.19
1277.799,-56.32
1277.813,-56.63
1277.828,-56.34
1277.844,-56.19
1277.859,-56.07
1277.874,-56.23
1277.889,-56.37
1277.904,-56.05
1277.919,-56.01
1277.934,-56.36
1277.948,-56.48
1277.964,-56.57
1277.979,-56.24
1277.994,-56.32
1278.009,-56.61
1278.024,-56.62
1278.039,-56.5
1278.054,-56.27
1278.069,-56.36
1278.084,-56.57
1278.099,-56.51
1278.114,-56.46
1278.129,-56.2
1278.144,-56.5
1278.159,-56.56
1278.174,-56.24
1278.189,-56.01
1278.204,-55.94
1278.219,-56.34
1278.234,-56.31
1278.249,-56.03
1278.264,-55.91
1278.279,-55.91
1278.294,-56.24
1278.309,-56.07
1278.324,-55.9
1278.339,-55.88
1278.354,-55.96
1278.369,-56.19
1278.384,-55.85
1278.399,-55.84
1278.414,-55.74
1278.429,-55.8
1278.444,-55.84
1278.459,-55.59
1278.474,-55.57
1278.489,-55.76
1278.504,-55.79
1278.519,-55.75
1278.534,-55.48
1278.549,-55.58
1278.564,-55.74
1278.579,-55.76
1278.594,-55.67
1278.609,-55.47
1278.624,-55.68
1278.639,-55.62
1278.654,-55.64
1278.669,-55.52
1278.684,-55.46
1278.699,-55.7
1278.714,-55.66
1278.729,-55.42
1278.744,-55.31
1278.759,-55.3
1278.774,-55.56
1278.789,-55.37
1278.804,-55.23
1278.819,-55.17
1278.834,-55.32
1278.849,-55.39
1278.864,-55.24
1278.879,-55.2
1278.894,-55.29
1278.909,-55.3
1278.924,-55.37
1278.939,-55.09
1278.954,-55.17
1278.969,-55.29
1278.984,-55.26
1278.999,-55.3
1279.014,-55.06
1279.029,-55.19
1279.044,-55.34
1279.059,-55.32
1279.074,-55.21
1279.089,-55.06
1279.104,-55.29
1279.119,-55.2
1279.134,-55.22
1279.149,-55.1
1279.164,-55.08
1279.179,-55.33
1279.194,-55.25
1279.209,-55.25
1279.224,-55.19
1279.239,-55.2
1279.254,-55.46
1279.269,-55.3
1279.284,-55.23
1279.299,-55.15
1279.314,-55.25
1279.329,-55.43
1279.344,-55.25
1279.359,-55.18
1279.374,-55.2
1279.389,-55.39
1279.404,-55.42
1279.419,-55.2
1279.434,-55.3
1279.449,-55.41
1279.464,-55.37
1279.479,-55.44
1279.494,-55.2
1279.509,-55.31
1279.524,-55.4
1279.539,-55.41
1279.554,-55.32
1279.569,-55.16
1279.584,-55.36
1279.599,-55.41
1279.614,-55.37
1279.629,-55.25
1279.644,-55.27
1279.659,-55.49
1279.674,-55.43
1279.689,-55.44
1279.704,-55.21
1279.719,-55.27
1279.734,-55.49
1279.749,-55.32
1279.764,-55.28
1279.779,-55.2
1279.794,-55.35
1279.809,-55.57
1279.824,-55.38
1279.839,-55.31
1279.854,-55.42
1279.869,-55.67
1279.884,-55.7
1279.899,-55.4
1279.914,-55.46
1279.929,-55.58
1279.944,-55.86
1279.959,-55.77
1279.974,-55.52
1279.989,-55.74
1280.004,-55.78
1280.019,-55.77
1280.034,-55.66
1280.049,-55.51
1280.064,-55.71
1280.079,-55.88
1280.094,-55.78
1280.109,-55.64
1280.124,-55.6
1280.139,-55.87
1280.154,-55.81
1280.169,-55.78
1280.184,-55.47
1280.199,-55.54
1280.214,-55.85
1280.229,-55.61
1280.244,-55.53
1280.259,-55.27
1280.274,-55.45
1280.289,-55.74
1280.304,-55.59
1280.319,-55.45
1280.334,-55.5
1280.349,-55.69
1280.364,-55.73
1280.379,-55.54
1280.394,-55.4
1280.409,-55.51
1280.424,-55.72
1280.439,-55.66
1280.454,-55.41
1280.469,-55.58
1280.484,-55.73
1280.499,-56.0
1280.514,-55.88
1280.529,-55.61
1280.544,-55.85
1280.559,-55.98
1280.574,-56.14
1280.589,-55.95
1280.604,-55.9
1280.619,-56.19
1280.634,-56.19
1280.649,-56.18
1280.664,-55.94
1280.679,-56.04
1280.694,-56.13
1280.709,-56.09
1280.724,-56.03
1280.739,-55.81
1280.754,-56.04
1280.769,-56.13
1280.784,-55.92
1280.799,-55.97
1280.814,-55.78
1280.829,-56.06
1280.844,-55.94
1280.859,-55.73
1280.874,-55.68
1280.889,-55.73
1280.904,-56.04
1280.919,-56.02
1280.934,-55.88
1280.949,-55.96
1280.964,-55.95
1280.979,-56.08
1280.994,-55.82
1281.009,-55.8
1281.024,-55.99
1281.039,-55.96
1281.054,-56.0
1281.069,-55.85
1281.084,-55.8
1281.099,-56.03
1281.114,-55.94
1281.129,-55.89
1281.144,-55.7
1281.159,-55.86
1281.174,-55.94
1281.189,-55.91
1281.204,-56.04
1281.219,-55.76
1281.234,-56.12
1281.249,-56.1
1281.264,-56.15
1281.279,-56.25
1281.294,-56.08
1281.309,-56.26
1281.324,-56.23
1281.339,-56.02
1281.354,-56.04
1281.369,-56.03
1281.384,-56.12
1281.399,-56.05
1281.414,-55.94
1281.429,-55.97
1281.444,-55.89
1281.459,-56.02
1281.474,-55.85
1281.489,-55.73
1281.504,-55.7
1281.519,-55.58
1281.534,-55.68
1281.549,-55.56
1281.564,-55.62
1281.579,-55.59
1281.594,-55.47
1281.609,-55.55
1281.624,-55.34
1281.639,-55.55
1281.654,-55.51
1281.669,-55.44
1281.684,-55.41
1281.699,-55.29
1281.714,-55.54
1281.729,-55.5
1281.744,-55.49
1281.759,-55.48
1281.774,-55.46
1281.789,-55.68
1281.804,-55.46
1281.819,-55.43
1281.834,-55.45
1281.849,-55.49
1281.864,-55.52
1281.879,-55.39
1281.894,-55.32
1281.909,-55.27
1281.924,-55.17
1281.939,-55.19
1281.954,-55.08
1281.969,-55.09
1281.984,-55.12
1281.999,-55.1
1282.014,-54.98
1282.029,-55.02
1282.044,-55.11
1282.059,-55.19
1282.074,-55.13
1282.089,-55.07
1282.104,-55.11
1282.119,-55.13
1282.134,-55.25
1282.149,-55.27
1282.164,-55.17
1282.179,-55.24
1282.194,-55.28
1282.209,-55.15
1282.224,-55.2
1282.239,-55.07
1282.254,-55.2
1282.269,-55.15
1282.284,-55.07
1282.299,-54.97
1282.314,-55.01
1282.329,-55.01
1282.344,-55.04
1282.359,-54.94
1282.374,-55.06
1282.389,-55.15
1282.404,-55.13
1282.419,-55.06
1282.434,-55.08
1282.449,-55.15
1282.464,-55.03
1282.479,-55.05
1282.494,-55.04
1282.509,-55.05
1282.524,-55.09
1282.539,-55.07
1282.554,-55.22
1282.569,-55.21
1282.584,-55.3
1282.599,-55.29
1282.614,-55.18
1282.629,-55.38
1282.644,-55.24
1282.659,-55.32
1282.674,-55.4
1282.689,-55.31
1282.704,-55.61
1282.719,-55.44
1282.734,-55.49
1282.749,-55.56
1282.764,-55.5
1282.779,-55.75
1282.794,-55.51
1282.809,-55.54
1282.824,-55.56
1282.839,-55.52
1282.854,-55.62
1282.869,-55.55
1282.884,-55.59
1282.899,-55.78
1282.914,-55.74
1282.929,-55.79
1282.944,-55.8
1282.959,-55.8
1282.974,-55.94
1282.989,-55.86
1283.004,-55.94
1283.019,-56.02
1283.034,-55.97
1283.049,-56.04
1283.064,-55.81
1283.079,-55.92
1283.094,-55.85
1283.109,-55.76
1283.124,-55.87
1283.139,-55.77
1283.154,-55.83
1283.169,-55.76
1283.184,-55.74
1283.199,-55.76
1283.214,-55.76
1283.229,-55.96
1283.244,-56.05
1283.259,-56.0
1283.274,-56.05
1283.289,-55.9
1283.304,-56.06
1283.319,-56.01
1283.334,-56.13
1283.349,-56.14
1283.364,-56.16
1283.379,-56.2
1283.394,-55.93
1283.409,-55.89
1283.424,-55.99
1283.439,-55.89
1283.454,-55.99
1283.469,-56.02
1283.484,-56.08
1283.499,-56.28
1283.514,-56.19
1283.529,-56.27
1283.544,-56.3
1283.559,-56.16
1283.574,-56.37
1283.589,-56.1
1283.604,-56.19
1283.619,-56.21
1283.634,-56.14
1283.649,-56.31
1283.664,-56.06
1283.679,-56.08
1283.694,-56.12
1283.709,-55.89
1283.724,-56.07
1283.739,-55.9
1283.754,-55.91
1283.769,-55.84
1283.784,-55.66
1283.799,-55.8
1283.814,-55.71
1283.829,-55.88
1283.844,-56.05
1283.859,-55.99
1283.874,-56.07
1283.889,-56.0
1283.904,-55.95
1283.919,-55.99
1283.934,-56.09
1283.949,-56.13
1283.964,-55.98
1283.979,-55.91
1283.994,-55.92
1284.009,-55.8
1284.024,-55.95
1284.039,-55.89
1284.054,-55.87
1284.069,-55.93
1284.084,-55.82
1284.099,-55.94
1284.114,-55.9
1284.129,-55.99
1284.144,-55.98
1284.159,-55.91
1284.174,-56.11
1284.189,-56.13
1284.204,-56.24
1284.219,-56.22
1284.234,-56.06
1284.249,-56.08
1284.264,-55.95
1284.279,-56.09
1284.294,-56.04
1284.309,-56.1
1284.324,-56.15
1284.339,-55.92
1284.354,-55.82
1284.369,-55.81
1284.384,-55.67
1284.399,-55.8
1284.414,-55.88
1284.429,-55.88
1284.444,-56.06
1284.459,-55.88
1284.474,-55.97
1284.489,-55.89
1284.504,-55.81
1284.519,-55.95
1284.534,-55.85
1284.549,-55.96
1284.564,-55.91
1284.579,-55.73
1284.594,-55.92
1284.609,-55.73
1284.624,-55.87
1284.639,-55.75
1284.654,-55.66
1284.669,-55.87
1284.684,-55.7
1284.699,-55.73
1284.714,-55.73
1284.729,-55.69
1284.744,-55.79
1284.759,-55.75
1284.774,-55.89
1284.789,-56.03
1284.804,-55.94
1284.819,-56.1
1284.834,-56.02
1284.849,-55.86
1284.864,-55.85
1284.879,-55.97
1284.894,-56.0
1284.909,-55.95
1284.924,-55.91
1284.939,-55.77
1284.954,-55.66
1284.969,-55.74
1284.984,-55.68
1284.999,-55.68
1285.014,-55.79
1285.029,-55.64
1285.044,-55.69
1285.059,-55.53
1285.074,-55.61
1285.089,-55.67
1285.104,-55.6
1285.119,-55.73
1285.134,-55.71
1285.149,-55.84
1285.164,-55.82
1285.179,-55.69
1285.194,-55.7
1285.209,-55.58
1285.224,-55.72
1285.24,-55.75
1285.255,-55.62
1285.269,-55.77
1285.284,-55.55
1285.299,-55.55
1285.314,-55.64
1285.329,-55.43
1285.344,-55.66
1285.359,-55.63
1285.375,-55.75
1285.39,-55.87
1285.404,-55.75
1285.419,-55.85
1285.434,-55.86
1285.449,-55.71
1285.464,-55.84
1285.479,-55.71
1285.495,-55.86
1285.51,-55.85
1285.525,-55.68
1285.54,-55.81
1285.554,-55.61
1285.569,-55.79
1285.584,-55.82
1285.599,-55.55
1285.615,-55.76
1285.63,-55.57
1285.645,-55.78
1285.66,-55.67
1285.675,-55.52
1285.689,-55.66
1285.704,-55.66
1285.719,-55.82
1285.734,-55.99
1285.75,-55.93
1285.765,-56.06
1285.78,-56.01
1285.795,-55.93
1285.81,-55.95
1285.825,-55.96
1285.839,-56.02
1285.854,-55.93
1285.87,-55.94
1285.885,-55.81
1285.9,-55.7
1285.915,-55.8
1285.93,-55.7
1285.945,-55.74
1285.96,-55.87
1285.974,-55.79
1285.99,-55.95
1286.005,-55.72
1286.02,-55.77
1286.035,-55.86
1286.05,-55.81
1286.065,-55.98
1286.08,-56.01
1286.095,-56.13
1286.11,-56.26
1286.125,-56.17
1286.14,-56.14
1286.155,-56.08
1286.17,-56.29
1286.185,-56.33
1286.2,-56.11
1286.215,-56.06
1286.23,-56.02
1286.245,-56.05
1286.26,-56.08
1286.275,-55.77
1286.29,-55.87
1286.305,-56.07
1286.32,-55.96
1286.335,-56.09
1286.35,-55.84
1286.365,-56.11
1286.38,-56.18
1286.395,-56.02
1286.41,-56.01
1286.425,-55.96
1286.44,-56.11
1286.455,-56.12
1286.47,-55.87
1286.485,-55.89
1286.5,-55.83
1286.515,-55.99
1286.53,-56.01
1286.545,-55.82
1286.56,-56.06
1286.575,-55.99
1286.59,-55.96
1286.605,-56.02
1286.62,-55.81
1286.635,-56.12
1286.65,-56.05
1286.665,-56.05
1286.68,-56.11
1286.695,-56.22
1286.71,-56.49
1286.725,-56.44
1286.74,-56.08
1286.755,-56.05
1286.77,-56.04
1286.785,-55.99
1286.8,-55.91
1286.815,-55.79
1286.83,-55.74
1286.845,-55.69
1286.86,-55.78
1286.875,-55.74
1286.89,-55.53
1286.905,-55.83
1286.92,-55.78
1286.935,-55.75
1286.95,-55.78
1286.965,-55.73
1286.98,-55.71
1286.995,-55.62
1287.01,-55.72
1287.025,-55.74
1287.04,-55.67
1287.055,-55.69
1287.07,-55.69
1287.085,-55.57
1287.1,-55.53
1287.115,-55.41
1287.13,-55.44
1287.145,-55.44
1287.16,-55.4
1287.175,-55.31
1287.19,-55.21
1287.205,-55.31
1287.22,-55.47
1287.235,-55.42
1287.25,-55.28
1287.265,-55.28
1287.28,-55.47
1287.295,-55.54
1287.31,-55.42
1287.325,-55.38
1287.34,-55.49
1287.355,-55.68
1287.37,-55.65
1287.385,-55.45
1287.4,-55.47
1287.415,-55.62
1287.43,-55.56
1287.445,-55.33
1287.46,-55.27
1287.475,-55.35
1287.49,-55.49
1287.505,-55.48
1287.52,-55.27
1287.535,-55.37
1287.55,-55.46
1287.565,-55.47
1287.58,-55.29
1287.595,-55.32
1287.61,-55.51
1287.625,-55.6
1287.64,-55.31
1287.655,-55.23
1287.67,-55.24
1287.685,-55.47
1287.7,-55.32
1287.715,-54.97
1287.73,-54.99
1287.745,-55.1
1287.76,-55.24
1287.775,-55.02
1287.79,-55.04
1287.805,-55.14
1287.82,-55.26
1287.835,-55.2
1287.85,-55.12
1287.865,-55.13
1287.88,-55.25
1287.895,-55.37
1287.91,-55.1
1287.925,-55.05
1287.94,-55.19
1287.955,-55.3
1287.97,-55.15
1287.985,-55.08
1288.0,-55.16
1288.015,-55.36
1288.03,-55.3
1288.045,-55.2
1288.06,-55.16
1288.075,-55.24
1288.09,-55.31
1288.105,-55.1
1288.12,-55.03
1288.135,-55.11
1288.15,-55.24
1288.165,-55.22
1288.18,-54.94
1288.195,-55.09
1288.21,-55.17
1288.225,-55.25
1288.24,-55.07
1288.255,-55.11
1288.27,-55.33
1288.285,-55.44
1288.3,-55.45
1288.315,-55.34
1288.33,-55.36
1288.345,-55.49
1288.36,-55.36
1288.375,-55.11
1288.39,-55.16
1288.405,-55.19
1288.42,-55.23
1288.435,-55.12
1288.45,-55.06
1288.465,-55.17
1288.48,-55.42
1288.495,-55.47
1288.51,-55.32
1288.525,-55.34
1288.54,-55.43
1288.555,-55.55
1288.57,-55.26
1288.585,-55.29
1288.6,-55.3
1288.615,-55.28
1288.63,-55.22
1288.645,-55.23
1288.66,-55.29
1288.675,-55.38
1288.69,-55.4
1288.705,-55.27
1288.72,-55.33
1288.735,-55.43
1288.75,-55.55
1288.765,-55.23
1288.78,-55.27
1288.795,-55.25
1288.81,-55.35
1288.825,-55.36
1288.84,-55.16
1288.855,-55.24
1288.87,-55.34
1288.885,-55.39
1288.9,-55.27
1288.915,-55.21
1288.93,-55.39
1288.945,-55.59
1288.96,-55.53
1288.975,-55.39
1288.99,-55.44
1289.005,-55.61
1289.02,-55.55
1289.035,-55.29
1289.05,-55.36
1289.065,-55.46
1289.08,-55.62
1289.095,-55.55
1289.11,-55.45
1289.125,-55.61
1289.14,-55.81
1289.155,-55.82
1289.17,-55.63
1289.185,-55.68
1289.2,-55.73
1289.215,-55.91
1289.23,-55.58
1289.245,-55.55
1289.26,-55.65
1289.275,-55.7
1289.29,-55.63
1289.305,-55.33
1289.32,-55.32
1289.335,-55.45
1289.35,-55.46
1289.365,-55.34
1289.38,-55.32
1289.395,-55.41
1289.41,-55.65
1289.425,-55.43
1289.44,-55.43
1289.455,-55.51
1289.47,-55.73
1289.485,-55.72
1289.5,-55.34
1289.515,-55.38
1289.53,-55.48
1289.545,-55.62
1289.56,-55.37
1289.575,-55.37
1289.59,-55.43
1289.605,-55.66
1289.62,-55.68
1289.635,-55.54
1289.65,-55.54
1289.665,-55.63
1289.68,-55.87
1289.695,-55.52
1289.71,-55.5
1289.725,-55.6
1289.74,-55.78
1289.755,-55.58
1289.77,-55.58
1289.785,-55.63
1289.8,-55.95
1289.815,-56.02
1289.83,-55.85
1289.845,-55.9
1289.86,-55.96
1289.875,-56.09
1289.89,-55.79
1289.905,-55.76
1289.92,-55.82
1289.935,-55.9
1289.95,-55.75
1289.965,-55.47
1289.98,-55.53
1289.995,-55.62
1290.01,-55.71
1290.025,-55.61
1290.04,-55.65
1290.055,-55.67
1290.07,-55.92
1290.085,-55.87
1290.1,-55.75
1290.115,-55.81
1290.13,-55.9
1290.145,-55.88
1290.16,-55.58
1290.175,-55.6
1290.19,-55.74
1290.205,-55.83
1290.22,-55.6
1290.235,-55.53
1290.25,-55.63
1290.265,-55.76
1290.28,-55.69
1290.295,-55.55
1290.31,-55.68
1290.325,-55.8
1290.34,-55.88
1290.355,-55.62
1290.37,-55.55
1290.385,-55.59
1290.4,-55.71
1290.415,-55.51
1290.43,-55.52
1290.445,-55.51
1290.46,-55.77
1290.475,-55.78
1290.49,-55.47
1290.505,-55.55
1290.52,-55.69
1290.535,-55.81
1290.55,-55.52
1290.565,-55.51
1290.58,-55.56
1290.595,-55.73
1290.61,-55.59
1290.625,-55.3
1290.64,-55.42
1290.655,-55.66
1290.67,-55.66
1290.685,-55.39
1290.7,-55.43
1290.715,-55.63
1290.73,-55.65
1290.745,-55.36
1290.76,-55.37
1290.775,-55.47
1290.79,-55.65
1290.805,-55.52
1290.82,-55.29
1290.835,-55.35
1290.85,-55.51
1290.865,-55.36
1290.88,-55.2
1290.895,-55.21
1290.91,-55.38
1290.925,-55.46
1290.94,-55.3
1290.955,-55.25
1290.97,-55.48
1290.985,-55.65
1291.0,-55.66
1291.015,-55.45
1291.03,-55.47
1291.045,-55.66
1291.06,-55.53
1291.075,-55.49
1291.09,-55.2
1291.105,-55.33
1291.12,-55.36
1291.135,-55.22
1291.15,-55.18
1291.165,-55.38
1291.18,-55.28
1291.195,-55.33
1291.21,-55.11
1291.225,-55.18
1291.24,-55.39
1291.255,-55.29
1291.27,-55.21
1291.285,-55.29
1291.3,-55.4
1291.315,-55.45
1291.33,-55.26
1291.345,-55.23
1291.36,-55.45
1291.375,-55.48
1291.39,-55.52
1291.405,-55.36
1291.42,-55.44
1291.435,-55.62
1291.45,-55.58
1291.465,-55.39
1291.48,-55.34
1291.495,-55.57
1291.51,-55.66
1291.525,-55.42
1291.54,-55.37
1291.555,-55.52
1291.57,-55.47
1291.585,-55.47
1291.6,-55.27
1291.615,-55.35
1291.63,-55.46
1291.645,-55.41
1291.66,-55.27
1291.675,-55.34
1291.69,-55.35
1291.705,-55.52
1291.72,-55.32
1291.735,-55.31
1291.75,-55.53
1291.765,-55.54
1291.78,-55.48
1291.795,-55.49
1291.81,-55.45
1291.825,-55.52
1291.84,-55.37
1291.855,-55.3
1291.87,-55.55
1291.885,-55.51
1291.9,-55.56
1291.915,-55.35
1291.93,-55.45
1291.945,-55.64
1291.96,-55.59
1291.975,-55.44
1291.99,-55.33
1292.005,-55.35
1292.02,-55.5
1292.035,-55.34
1292.05,-55.25
1292.065,-55.56
1292.08,-55.39
1292.095,-55.39
1292.11,-55.47
1292.125,-55.58
1292.14,-55.72
1292.155,-55.56
1292.17,-55.34
1292.185,-55.55
1292.2,-55.52
1292.215,-55.52
1292.23,-55.39
1292.245,-55.29
1292.26,-55.57
1292.275,-55.61
1292.29,-55.4
1292.305,-55.43
1292.32,-55.44
1292.335,-55.66
1292.35,-55.58
1292.365,-55.43
1292.38,-55.63
1292.395,-55.68
1292.41,-55.67
1292.425,-55.66
1292.44,-55.51
1292.455,-55.71
1292.47,-55.74
1292.485,-55.56
1292.5,-55.56
1292.515,-55.55
1292.53,-55.54
1292.545,-55.49
1292.56,-55.36
1292.575,-55.56
1292.59,-55.63
1292.605,-55.61
1292.62,-55.52
1292.635,-55.74
1292.65,-55.89
1292.665,-55.98
1292.68,-55.62
1292.695,-55.77
1292.71,-55.83
1292.725,-55.74
1292.74,-55.7
1292.755,-55.47
1292.77,-55.56
1292.785,-55.7
1292.8,-55.49
1292.815,-55.52
1292.83,-55.59
1292.845,-55.79
1292.86,-55.78
1292.875,-55.52
1292.89,-55.56
1292.905,-55.81
1292.92,-55.81
1292.935,-55.7
1292.95,-55.44
1292.965,-55.58
1292.98,-55.85
1292.995,-55.65
1293.01,-55.56
1293.025,-55.64
1293.04,-55.74
1293.055,-55.92
1293.07,-55.58
1293.085,-55.61
1293.1,-55.98
1293.115,-55.7
1293.13,-55.51
1293.145,-55.53
1293.16,-55.63
1293.175,-55.83
1293.19,-55.63
1293.205,-55.57
1293.22,-55.83
1293.235,-55.93
1293.25,-55.91
1293.266,-55.61
1293.281,-55.58
1293.295,-55.86
1293.31,-55.74
1293.325,-55.56
1293.34,-55.56
1293.355,-55.75
1293.37,-55.96
1293.385,-55.61
1293.401,-55.46
1293.416,-55.76
1293.43,-55.71
1293.445,-55.66
1293.46,-55.5
1293.475,-55.47
1293.49,-55.84
1293.505,-55.64
1293.521,-55.42
1293.536,-55.58
1293.551,-55.76
1293.566,-55.68
1293.58,-55.53
1293.595,-55.42
1293.61,-55.71
1293.625,-55.82
1293.641,-55.52
1293.656,-55.46
1293.671,-55.54
1293.686,-55.84
1293.701,-55.58
1293.715,-55.39
1293.73,-55.7
1293.745,-55.7
1293.76,-55.74
1293.776,-55.7
1293.791,-55.57
1293.806,-55.86
1293.821,-55.83
1293.836,-55.6
1293.851,-55.59
1293.865,-55.71
1293.88,-55.7
1293.896,-55.69
1293.911,-55.45
1293.926,-55.62
1293.941,-55.74
1293.956,-55.76
1293.971,-55.71
1293.986,-55.73
1294.001,-55.88
1294.016,-56.0
1294.031,-55.62
1294.046,-55.72
1294.061,-55.78
1294.076,-55.67
1294.091,-55.67
1294.106,-55.44
1294.121,-55.57
1294.136,-55.77
1294.151,-55.56
1294.166,-55.56
1294.181,-55.63
1294.196,-55.84
1294.211,-55.96
1294.226,-55.7
1294.241,-55.71
1294.256,-56.02
1294.271,-56.01
1294.286,-56.03
1294.301,-55.84
1294.316,-55.9
1294.331,-56.12
1294.346,-55.84
1294.361,-55.7
1294.376,-55.65
1294.391,-55.67
1294.406,-55.84
1294.421,-55.62
1294.436,-55.59
1294.451,-55.89
1294.466,-55.73
1294.481,-55.78
1294.496,-55.72
1294.511,-55.78
1294.526,-56.0
1294.541,-55.97
1294.556,-55.79
1294.571,-56.05
1294.586,-55.97
1294.601,-56.01
1294.616,-55.8
1294.631,-55.77
1294.646,-56.02
1294.661,-55.83
1294.676,-55.55
1294.691,-55.51
1294.706,-55.62
1294.721,-55.82
1294.736,-55.46
1294.751,-55.46
1294.766,-55.77
1294.781,-55.67
1294.796,-55.62
1294.811,-55.51
1294.826,-55.47
1294.841,-55.78
1294.856,-55.62
1294.871,-55.41
1294.886,-55.58
1294.901,-55.65
1294.916,-55.6
1294.931,-55.52
1294.946,-55.34
1294.961,-55.59
1294.976,-55.66
1294.991,-55.41
1295.006,-55.33
1295.021,-55.4
1295.036,-55.75
1295.051,-55.68
1295.066,-55.32
1295.081,-55.59
1295.096,-55.69
1295.111,-55.68
1295.126,-55.64
1295.141,-55.48
1295.156,-55.73
1295.171,-55.9
1295.186,-55.62
1295.201,-55.52
1295.216,-55.63
1295.231,-55.56
1295.246,-55.54
1295.261,-55.24
1295.276,-55.47
1295.291,-55.54
1295.306,-55.48
1295.321,-55.44
1295.336,-55.31
1295.351,-55.59
1295.366,-55.65
1295.381,-55.4
1295.396,-55.51
1295.411,-55.61
1295.426,-55.59
1295.441,-55.58
1295.456,-55.34
1295.471,-55.56
1295.486,-55.71
1295.501,-55.57
1295.516,-55.47
1295.531,-55.54
1295.546,-55.45
1295.561,-55.49
1295.576,-55.28
1295.591,-55.4
1295.606,-55.54
1295.621,-55.53
1295.636,-55.44
1295.651,-55.42
1295.666,-55.53
1295.681,-55.78
1295.696,-55.53
1295.711,-55.54
1295.726,-55.57
1295.741,-55.62
1295.756,-55.53
1295.771,-55.47
1295.786,-55.47
1295.801,-55.77
1295.816,-55.69
1295.831,-55.64
1295.846,-55.61
1295.861,-55.68
1295.876,-55.64
1295.891,-55.52
1295.906,-55.42
1295.921,-55.77
1295.936,-55.71
1295.951,-55.7
1295.966,-55.57
1295.981,-55.66
1295.996,-55.6
1296.011,-55.59
1296.026,-55.47
1296.041,-55.4
1296.056,-55.42
1296.071,-55.46
1296.086,-55.32
1296.101,-55.42
1296.116,-55.47
1296.131,-55.48
1296.146,-55.45
1296.161,-55.46
1296.176,-55.43
1296.191,-55.45
1296.206,-55.38
1296.221,-55.28
1296.236,-55.38
1296.251,-55.48
1296.266,-55.45
1296.281,-55.23
1296.296,-55.3
1296.311,-55.37
1296.326,-55.3
1296.341,-55.44
1296.356,-55.42
1296.371,-55.51
1296.386,-55.54
1296.401,-55.47
1296.416,-55.36
1296.431,-55.48
1296.446,-55.46
1296.461,-55.53
1296.476,-55.32
1296.491,-55.37
1296.506,-55.41
1296.521,-55.39
1296.536,-55.27
1296.551,-55.39
1296.566,-55.36
1296.581,-55.37
1296.596,-55.26
1296.611,-55.25
1296.626,-55.38
1296.641,-55.38
1296.656,-55.33
1296.671,-55.48
1296.686,-55.3
1296.701,-55.29
1296.716,-55.28
1296.731,-55.23
1296.746,-55.36
1296.761,-55.47
1296.776,-55.38
1296.791,-55.52
1296.806,-55.4
1296.821,-55.31
1296.836,-55.36
1296.851,-55.23
1296.866,-55.28
1296.881,-55.26
1296.896,-55.18
1296.911,-55.28
1296.926,-55.23
1296.941,-55.3
1296.956,-55.33
1296.971,-55.32
1296.986,-55.27
1297.001,-55.48
1297.016,-55.41
1297.031,-55.47
1297.046,-55.59
1297.061,-55.66
1297.076,-55.76
1297.091,-55.73
1297.106,-55.59
1297.121,-55.69
1297.136,-55.63
1297.151,-55.71
1297.166,-55.79
1297.181,-55.64
1297.196,-55.76
1297.211,-55.72
1297.226,-55.67
1297.241,-55.74
1297.256,-55.62
1297.271,-55.7
1297.286,-55.71
1297.301,-55.68
1297.316,-55.76
1297.331,-55.82
1297.346,-55.69
1297.361,-55.63
1297.376,-55.61
1297.391,-55.56
1297.406,-55.57
1297.421,-55.43
1297.436,-55.43
1297.451,-55.55
1297.466,-55.47
1297.481,-55.58
1297.496,-55.65
1297.511,-55.48
1297.526,-55.59
1297.541,-55.44
1297.556,-55.4
1297.571,-55.5
1297.586,-55.43
1297.601,-55.58
1297.616,-55.61
1297.631,-55.47
1297.646,-55.64
1297.661,-55.59
1297.676,-55.42
1297.691,-55.59
1297.706,-55.65
1297.721,-55.65
1297.736,-55.68
1297.751,-55.58
1297.766,-55.78
1297.781,-55.72
1297.796,-55.47
1297.811,-55.53
1297.826,-55.64
1297.841,-55.61
1297.856,-55.65
1297.871,-55.43
1297.886,-55.71
1297.901,-55.81
1297.916,-55.8
1297.931,-55.7
1297.946,-55.63
1297.961,-55.6
1297.976,-55.69
1297.991,-55.56
1298.006,-55.52
1298.021,-55.72
1298.036,-55.67
1298.051,-55.51
1298.066,-55.49
1298.081,-55.4
1298.096,-55.47
1298.111,-55.43
1298.126,-55.34
1298.141,-55.47
1298.156,-55.46
1298.171,-55.27
1298.186,-55.37
1298.201,-55.32
1298.216,-55.5
1298.231,-55.35
1298.246,-55.33
1298.261,-55.44
1298.276,-55.45
1298.291,-55.49
1298.306,-55.52
1298.321,-55.55
1298.336,-55.67
1298.351,-55.68
1298.366,-55.58
1298.381,-55.57
1298.396,-55.67
1298.411,-55.58
1298.426,-55.71
1298.441,-55.81
1298.456,-55.84
1298.471,-55.87
1298.486,-55.82
1298.501,-55.77
1298.516,-55.95
1298.531,-55.8
1298.546,-55.88
1298.561,-55.79
1298.576,-55.7
1298.591,-55.92
1298.606,-55.83
1298.621,-55.72
1298.636,-55.97
1298.651,-55.8
1298.666,-55.8
1298.681,-55.68
1298.696,-55.52
1298.711,-55.66
1298.726,-55.67
1298.741,-55.62
1298.756,-55.74
1298.771,-55.52
1298.786,-55.46
1298.801,-55.59
1298.816,-55.51
1298.831,-55.51
1298.846,-55.54
1298.861,-55.5
1298.876,-55.68
1298.891,-55.61
1298.906,-55.52
1298.921,-55.58
1298.936,-55.58
1298.951,-55.6
1298.966,-55.74
1298.981,-55.56
1298.996,-55.63
1299.011,-55.8
1299.026,-55.76
1299.041,-55.79
1299.056,-55.74
1299.071,-55.61
1299.086,-55.75
1299.101,-55.68
1299.116,-55.71
1299.131,-55.81
1299.146,-55.72
1299.161,-55.88
1299.176,-55.94
1299.191,-55.81
1299.206,-55.95
1299.221,-55.74
1299.236,-55.86
1299.251,-56.0
1299.266,-55.83
1299.281,-55.93
1299.296,-55.98
1299.311,-55.86
1299.326,-55.81
1299.341,-55.7
1299.356,-55.59
1299.371,-55.67
1299.386,-55.49
1299.401,-55.5
1299.416,-55.54
1299.431,-55.53
1299.446,-55.46
1299.461,-55.46
1299.476,-55.3
1299.491,-55.4
1299.506,-55.25
1299.521,-55.19
1299.536,-55.32
1299.551,-55.28
1299.566,-55.37
1299.581,-55.6
1299.596,-55.36
1299.611,-55.36
1299.626,-55.45
1299.641,-55.28
1299.656,-55.45
1299.671,-55.33
1299.686,-55.42
1299.701,-55.59
1299.716,-55.5
1299.731,-55.48
1299.746,-55.47
1299.761,-55.35
1299.776,-55.42
1299.791,-55.45
1299.806,-55.46
1299.821,-55.59
1299.836,-55.52
1299.851,-55.46
1299.866,-55.53
1299.881,-55.43
1299.896,-55.39
1299.911,-55.5
1299.926,-55.4
1299.941,-55.47
1299.956,-55.44
1299.971,-55.31
1299.986,-55.4
1300.001,-55.57
1300.016,-55.42
1300.031,-55.31
1300.046,-55.2
1300.061,-55.3
1300.076,-55.46
1300.091,-55.27
1300.106,-55.15
1300.121,-55.32
1300.136,-55.41
1300.151,-55.46
1300.166,-55.24
1300.181,-55.19
1300.196,-55.37
1300.211,-55.27
1300.226,-55.13
1300.241,-55.29
1300.256,-55.35
1300.271,-55.5
1300.286,-55.36
1300.301,-55.23
1300.316,-55.42
1300.331,-55.54
1300.346,-55.33
1300.361,-55.4
1300.376,-55.56
1300.391,-55.83
1300.406,-55.81
1300.421,-55.67
1300.436,-55.8
1300.451,-55.96
1300.466,-55.76
1300.481,-55.72
1300.496,-55.77
1300.511,-56.08
1300.526,-55.9
1300.541,-55.77
1300.556,-55.77
1300.571,-56.02
1300.586,-55.84
1300.601,-55.74
1300.616,-55.72
1300.631,-55.93
1300.646,-55.99
1300.661,-55.84
1300.676,-55.8
1300.691,-55.87
1300.706,-56.05
1300.721,-55.81
1300.736,-55.77
1300.751,-56.02
1300.766,-56.1
1300.781,-56.17
1300.796,-56.01
1300.811,-56.01
1300.826,-56.11
1300.841,-56.07
1300.856,-56.05
1300.871,-56.02
1300.886,-56.07
1300.901,-56.18
1300.916,-56.02
1300.931,-55.99
1300.946,-56.05
1300.961,-56.1
1300.976,-55.9
1300.991,-55.89
1301.006,-55.75
1301.021,-55.87
1301.036,-55.84
1301.051,-55.81
1301.066,-55.88
1301.081,-55.94
1301.096,-55.86
1301.111,-56.12
1301.126,-55.94
1301.141,-55.79
1301.156,-55.76
1301.171,-55.81
1301.186,-55.8
1301.201,-55.82
1301.216,-55.79
1301.231,-56.06
1301.246,-55.93
1301.261,-55.66
1301.276,-55.61
1301.292,-55.55
1301.307,-55.55
1301.321,-55.54
1301.336,-55.61
1301.351,-55.7
1301.366,-55.76
1301.381,-55.59
1301.396,-55.52
1301.411,-55.54
1301.427,-55.56
1301.442,-55.49
1301.457,-55.29
1301.471,-55.39
1301.486,-55.53
1301.501,-55.45
1301.516,-55.36
1301.531,-55.63
1301.547,-55.48
1301.562,-55.46
1301.577,-55.49
1301.592,-55.37
1301.606,-55.49
1301.621,-55.49
1301.636,-55.32
1301.651,-55.41
1301.667,-55.25
1301.682,-55.29
1301.697,-55.43
1301.712,-55.18
1301.727,-55.43
1301.742,-55.46
1301.756,-55.29
1301.771,-55.35
1301.786,-55.33
1301.802,-55.3
1301.817,-55.43
1301.832,-55.47
1301.847,-55.49
1301.862,-55.52
1301.877,-55.42
1301.891,-55.5
1301.906,-55.52
1301.922,-55.41
1301.937,-55.41
1301.952,-55.52
1301.967,-55.45
1301.982,-55.64
1301.997,-55.57
1302.012,-55.74
1302.027,-55.83
1302.042,-55.72
1302.057,-55.7
1302.072,-55.87
1302.087,-55.86
1302.102,-55.74
1302.117,-55.58
1302.132,-55.65
1302.147,-55.83
1302.162,-55.83
1302.177,-55.6
1302.192,-55.77
1302.207,-55.89
1302.222,-55.73
1302.237,-55.62
1302.252,-55.52
1302.267,-55.72
1302.282,-55.8
1302.297,-55.57
1302.312,-55.58
1302.327,-55.76
1302.342,-55.65
1302.357,-55.37
1302.372,-55.29
1302.387,-55.37
1302.402,-55.55
1302.417,-55.38
1302.432,-55.28
1302.447,-55.41
1302.462,-55.71
1302.477,-55.48
1302.492,-55.38
1302.507,-55.39
1302.522,-55.5
1302.537,-55.33
1302.552,-55.25
1302.567,-55.41
1302.582,-55.49
1302.597,-55.39
1302.612,-55.2
1302.627,-55.34
1302.642,-55.48
1302.657,-55.44
1302.672,-55.38
1302.687,-55.39
1302.702,-55.48
1302.717,-55.65
1302.732,-55.34
1302.747,-55.32
1302.762,-55.38
1302.777,-55.61
1302.792,-55.46
1302.807,-55.39
1302.822,-55.52
1302.837,-55.49
1302.852,-55.26
1302.867,-55.09
1302.882,-55.33
1302.897,-55.51
1302.912,-55.44
1302.927,-55.35
1302.942,-55.42
1302.957,-55.54
1302.972,-55.48
1302.987,-55.25
1303.002,-55.44
1303.017,-55.62
1303.032,-55.61
1303.047,-55.51
1303.062,-55.53
1303.077,-55.65
1303.092,-55.52
1303.107,-55.37
1303.122,-55.41
1303.137,-55.68
1303.152,-55.76
1303.167,-55.55
1303.182,-55.62
1303.197,-55.7
1303.212,-55.75
1303.227,-55.67
1303.242,-55.54
1303.257,-55.82
1303.272,-55.9
1303.287,-55.79
1303.302,-55.81
1303.317,-55.97
1303.332,-56.14
1303.347,-55.93
1303.362,-55.9
1303.377,-56.15
1303.392,-56.37
1303.407,-56.06
1303.422,-55.88
1303.437,-55.9
1303.452,-56.13
1303.467,-55.99
1303.482,-55.91
1303.497,-55.89
1303.512,-56.23
1303.527,-56.08
1303.542,-55.85
1303.557,-55.83
1303.572,-56.05
1303.587,-56.04
1303.602,-55.88
1303.617,-55.96
1303.632,-56.04
1303.647,-56.1
1303.662,-55.9
1303.677,-55.95
1303.692,-56.28
1303.707,-56.3
1303.722,-56.11
1303.737,-56.02
1303.752,-56.15
1303.767,-56.36
1303.782,-56.03
1303.797,-55.8
1303.812,-56.09
1303.827,-56.06
1303.842,-55.8
1303.857,-55.79
1303.872,-55.98
1303.887,-56.04
1303.902,-55.87
1303.917,-55.63
1303.932,-55.8
1303.947,-56.08
1303.962,-55.78
1303.977,-55.77
1303.992,-56.07
1304.007,-56.13
1304.022,-55.99
1304.037,-55.7
1304.052,-55.67
1304.067,-56.01
1304.082,-55.72
1304.097,-55.49
1304.112,-55.68
1304.127,-55.91
1304.142,-55.61
1304.157,-55.37
1304.172,-55.38
1304.187,-55.64
1304.202,-55.64
1304.217,-55.3
1304.232,-55.35
1304.247,-55.67
1304.262,-55.48
1304.277,-55.42
1304.292,-55.39
1304.307,-55.5
1304.322,-55.66
1304.337,-55.36
1304.352,-55.28
1304.367,-55.56
1304.382,-55.46
1304.397,-55.24
1304.412,-55.36
1304.427,-55.55
1304.442,-55.63
1304.457,-55.44
1304.472,-55.26
1304.487,-55.45
1304.502,-55.65
1304.517,-55.34
1304.532,-55.31
1304.547,-55.6
1304.562,-55.73
1304.577,-55.61
1304.592,-55.45
1304.607,-55.54
1304.622,-55.82
1304.637,-55.68
1304.652,-55.48
1304.667,-55.6
1304.682,-55.81
1304.697,-55.55
1304.712,-55.35
1304.727,-55.51
1304.742,-55.6
1304.757,-55.63
1304.772,-55.37
1304.787,-55.4
1304.802,-55.7
1304.817,-55.53
1304.832,-55.34
1304.847,-55.48
1304.862,-55.63
1304.877,-55.62
1304.892,-55.44
1304.907,-55.59
1304.922,-55.88
1304.937,-55.85
1304.952,-55.54
1304.967,-55.71
1304.982,-55.85
1304.997,-55.53
1305.012,-55.29
1305.027,-55.42
1305.042,-55.49
1305.057,-55.43
1305.072,-55.15
1305.087,-55.18
1305.102,-55.47
1305.117,-55.43
1305.132,-55.16
1305.147,-55.33
1305.162,-55.51
1305.177,-55.41
1305.192,-55.22
1305.207,-55.33
1305.222,-55.58
1305.237,-55.61
1305.252,-55.28
1305.267,-55.34
1305.282,-55.56
1305.297,-55.43
1305.312,-55.3
1305.327,-55.22
1305.342,-55.35
1305.357,-55.33
1305.372,-55.22
1305.387,-55.17
1305.402,-55.39
1305.417,-55.43
1305.432,-55.17
1305.447,-55.19
1305.462,-55.45
1305.477,-55.48
1305.492,-55.3
1305.507,-55.31
1305.522,-55.4
1305.537,-55.66
1305.552,-55.34
1305.567,-55.28
1305.582,-55.51
1305.597,-55.47
1305.612,-55.37
1305.627,-55.26
1305.642,-55.25
1305.657,-55.5
1305.672,-55.4
1305.687,-55.11
1305.702,-55.23
1305.717,-55.44
1305.732,-55.18
1305.747,-55.15
1305.762,-55.22
1305.777,-55.43
1305.792,-55.49
1305.807,-55.22
1305.822,-55.24
1305.837,-55.53
1305.852,-55.38
1305.867,-55.18
1305.882,-55.45
1305.897,-55.6
1305.912,-55.58
1305.927,-55.27
1305.942,-55.07
1305.957,-55.34
1305.972,-55.36
1305.987,-55.15
1306.002,-55.19
1306.017,-55.5
1306.032,-55.33
1306.047,-55.23
1306.062,-55.23
1306.077,-55.37
1306.092,-55.62
1306.107,-55.36
1306.122,-55.24
1306.137,-55.47
1306.152,-55.58
1306.167,-55.58
1306.182,-55.63
1306.197,-55.6
1306.212,-55.7
1306.227,-55.5
1306.242,-55.4
1306.257,-55.57
1306.272,-55.7
1306.287,-55.41
1306.302,-55.38
1306.317,-55.39
1306.332,-55.46
1306.347,-55.4
1306.362,-55.42
1306.377,-55.41
1306.392,-55.63
1306.407,-55.5
1306.422,-55.3
1306.437,-55.3
1306.452,-55.43
1306.467,-55.41
1306.482,-55.3
1306.497,-55.42
1306.512,-55.42
1306.527,-55.56
1306.542,-55.26
1306.557,-55.31
1306.572,-55.34
1306.587,-55.36
1306.602,-55.3
1306.617,-55.35
1306.632,-55.4
1306.647,-55.57
1306.662,-55.32
1306.677,-55.26
1306.692,-55.56
1306.707,-55.64
1306.722,-55.63
1306.737,-55.55
1306.752,-55.58
1306.767,-55.69
1306.782,-55.57
1306.797,-55.39
1306.812,-55.58
1306.827,-55.83
1306.842,-55.5
1306.857,-55.55
1306.872,-55.65
1306.887,-55.55
1306.902,-55.58
1306.917,-55.33
1306.932,-55.39
1306.947,-55.79
1306.962,-55.62
1306.977,-55.4
1306.992,-55.53
1307.007,-55.72
1307.022,-55.75
1307.037,-55.68
1307.052,-55.6
1307.067,-55.88
1307.082,-55.95
1307.097,-55.66
1307.112,-55.7
1307.127,-56.08
1307.142,-55.98
1307.157,-55.71
1307.172,-55.46
1307.187,-55.45
1307.202,-55.8
1307.217,-55.47
1307.232,-55.38
1307.247,-55.59
1307.262,-55.66
1307.277,-55.38
1307.292,-55.44
1307.307,-55.62
1307.322,-55.89
1307.337,-55.81
1307.352,-55.62
1307.367,-55.68
1307.382,-55.92
1307.397,-55.68
1307.412,-55.61
1307.427,-55.88
1307.442,-56.03
1307.457,-55.92
1307.472,-55.68
1307.487,-55.71
1307.502,-56.03
1307.517,-55.87
1307.532,-55.57
1307.547,-55.72
1307.562,-55.95
1307.577,-55.9
1307.592,-55.72
1307.607,-55.8
1307.622,-55.94
1307.637,-55.81
1307.652,-55.59
1307.667,-55.53
1307.682,-55.91
1307.697,-55.71
1307.712,-55.55
1307.727,-55.41
1307.742,-55.64
1307.757,-55.6
1307.772,-55.49
1307.787,-55.57
1307.802,-55.67
1307.817,-55.56
1307.832,-55.2
1307.847,-55.28
1307.862,-55.44
1307.877,-55.46
1307.892,-55.39
1307.907,-55.29
1307.922,-55.48
1307.937,-55.44
1307.952,-55.22
1307.967,-55.29
1307.982,-55.41
1307.997,-55.38
1308.012,-55.23
1308.027,-55.14
1308.042,-55.23
1308.057,-55.21
1308.072,-55.09
1308.087,-55.16
1308.102,-55.19
1308.117,-55.18
1308.132,-55.0
1308.147,-55.14
1308.162,-55.1
1308.177,-55.22
1308.192,-55.18
1308.207,-55.08
1308.222,-55.25
1308.237,-55.24
1308.252,-55.06
1308.267,-55.08
1308.282,-55.24
1308.297,-55.24
1308.312,-55.15
1308.327,-55.14
1308.342,-55.09
1308.357,-55.16
1308.372,-55.15
1308.387,-55.09
1308.402,-55.23
1308.417,-55.25
1308.432,-55.02
1308.447,-55.11
1308.462,-55.22
1308.477,-55.12
1308.492,-55.26
1308.507,-55.17
1308.522,-55.06
1308.537,-55.2
1308.552,-55.12
1308.567,-55.01
1308.582,-55.11
1308.597,-55.09
1308.612,-55.02
1308.627,-55.11
1308.642,-55.17
1308.657,-55.08
1308.672,-55.31
1308.687,-55.17
1308.702,-55.33
1308.717,-55.34
1308.732,-55.29
1308.747,-55.24
1308.762,-55.35
1308.777,-55.24
1308.792,-55.13
1308.807,-55.24
1308.822,-55.2
1308.837,-55.32
1308.852,-55.29
1308.867,-55.22
1308.882,-55.36
1308.897,-55.33
1308.912,-55.27
1308.927,-55.33
1308.942,-55.41
1308.957,-55.37
1308.972,-55.33
1308.987,-55.38
1309.002,-55.51
1309.017,-55.57
1309.032,-55.41
1309.047,-55.34
1309.062,-55.55
1309.077,-55.55
1309.092,-55.35
1309.107,-55.46
1309.122,-55.51
1309.137,-55.62
1309.152,-55.29
1309.167,-55.44
1309.182,-55.6
1309.198,-55.68
1309.212,-55.58
1309.227,-55.51
1309.242,-55.67
1309.257,-55.71
1309.272,-55.59
1309.287,-55.5
1309.302,-55.77
1309.318,-55.83
1309.333,-55.51
1309.347,-55.51
1309.362,-55.61
1309.377,-55.59
1309.392,-55.43
1309.407,-55.4
1309.422,-55.5
1309.438,-55.74
1309.453,-55.45
1309.468,-55.41
1309.483,-55.71
1309.497,-55.66
1309.512,-55.37
1309.527,-55.49
1309.542,-55.6
1309.557,-55.65
1309.573,-55.55
1309.588,-55.61
1309.603,-55.76
1309.618,-55.93
1309.632,-55.64
1309.647,-55.49
1309.662,-55.83
1309.677,-55.74
1309.693,-55.63
1309.708,-55.48
1309.723,-55.7
1309.738,-55.67
1309.753,-55.48
1309.768,-55.57
1309.782,-55.83
1309.797,-55.91
1309.813,-55.6
1309.828,-55.64
1309.843,-55.83
1309.858,-55.88
1309.873,-55.75
1309.888,-55.7
1309.903,-55.91
1309.917,-55.96
1309.932,-55.78
1309.948,-55.83
1309.963,-56.1
1309.978,-56.06
1309.993,-55.9
1310.008,-55.77
1310.023,-55.99
1310.038,-55.96
1310.053,-55.85
1310.068,-55.86
1310.083,-56.02
1310.098,-55.98
1310.113,-55.78
1310.128,-55.67
1310.143,-55.81
1310.158,-55.94
1310.173,-55.85
1310.188,-55.71
1310.203,-55.9
1310.218,-55.95
1310.233,-55.82
1310.248,-55.83
1310.263,-55.96
1310.278,-55.91
1310.293,-55.92
1310.308,-55.7
1310.323,-55.75
1310.338,-55.84
1310.353,-55.79
1310.368,-55.71
1310.383,-55.92
1310.398,-55.95
1310.413,-55.89
1310.428,-56.0
1310.443,-55.83
1310.458,-55.82
1310.473,-55.84
1310.488,-55.66
1310.503,-55.82
1310.518,-55.9
1310.533,-55.78
1310.548,-55.72
1310.563,-55.9
1310.578,-55.83
1310.593,-55.69
1310.608,-55.81
1310.623,-55.61
1310.638,-55.55
1310.653,-55.72
1310.668,-55.6
1310.683,-55.74
1310.698,-55.76
1310.713,-55.76
1310.728,-55.71
1310.743,-55.87
1310.758,-55.9
1310.773,-55.75
1310.788,-55.82
1310.803,-55.7
1310.818,-55.75
1310.833,-55.91
1310.848,-55.79
1310.863,-55.96
1310.878,-55.97
1310.893,-55.83
1310.908,-55.8
1310.923,-55.98
1310.938,-55.8
1310.953,-55.67
1310.968,-55.69
1310.983,-55.63
1310.998,-55.64
1311.013,-55.82
1311.028,-55.59
1311.043,-55.82
1311.058,-55.84
1311.073,-55.68
1311.088,-55.71
1311.103,-55.85
1311.118,-55.82
1311.133,-56.06
1311.148,-56.0
1311.163,-55.9
1311.178,-55.97
1311.193,-55.85
1311.208,-55.67
1311.223,-55.83
1311.238,-55.89
1311.253,-55.62
1311.268,-55.65
1311.283,-55.78
1311.298,-55.67
1311.313,-55.82
1311.328,-55.85
1311.343,-55.79
1311.358,-55.82
1311.373,-55.77
1311.388,-55.61
1311.403,-55.87
1311.418,-55.9
1311.433,-55.73
1311.448,-55.82
1311.463,-55.94
1311.478,-55.87
1311.493,-56.01
1311.508,-55.95
1311.523,-55.8
1311.538,-55.83
1311.553,-55.77
1311.568,-55.67
1311.583,-55.82
1311.598,-55.76
1311.613,-55.57
1311.628,-55.7
1311.643,-55.77
1311.658,-55.69
1311.673,-55.73
1311.688,-55.7
1311.703,-55.61
1311.718,-55.64
1311.733,-55.48
1311.748,-55.42
1311.763,-55.61
1311.778,-55.67
1311.793,-55.46
1311.808,-55.62
1311.823,-55.63
1311.838,-55.45
1311.853,-55.49
1311.868,-55.43
1311.883,-55.36
1311.898,-55.44
1311.913,-55.32
1311.928,-55.27
1311.943,-55.49
1311.958,-55.46
1311.973,-55.22
1311.988,-55.33
1312.003,-55.36
1312.018,-55.21
1312.033,-55.31
1312.048,-55.22
1312.063,-55.15
1312.078,-55.22
1312.093,-55.06
1312.108,-55.12
1312.123,-55.23
1312.138,-55.14
1312.153,-55.03
1312.168,-55.18
1312.183,-55.12
1312.198,-55.16
1312.213,-55.33
1312.228,-55.27
1312.243,-55.18
1312.258,-55.29
1312.273,-55.16
1312.288,-55.18
1312.303,-55.28
1312.318,-55.2
1312.333,-55.04
1312.348,-55.22
1312.363,-55.23
1312.378,-55.26
1312.393,-55.4
1312.408,-55.33
1312.423,-55.25
1312.438,-55.24
1312.453,-55.08
1312.468,-55.2
1312.483,-55.23
1312.498,-55.15
1312.513,-55.0
1312.528,-55.17
1312.543,-55.22
1312.558,-55.23
1312.573,-55.29
1312.588,-55.22
1312.603,-55.26
1312.618,-55.35
1312.633,-55.44
1312.648,-55.51
1312.663,-55.59
1312.678,-55.53
1312.693,-55.5
1312.708,-55.68
1312.723,-55.63
1312.738,-55.65
1312.753,-55.75
1312.768,-55.62
1312.783,-55.52
1312.798,-55.62
1312.813,-55.56
1312.828,-55.48
1312.843,-55.43
1312.858,-55.42
1312.873,-55.46
1312.888,-55.56
1312.903,-55.49
1312.918,-55.62
1312.933,-55.69
1312.948,-55.48
1312.963,-55.49
1312.978,-55.77
1312.993,-55.6
1313.008,-55.51
1313.023,-55.73
1313.038,-55.89
1313.053,-55.66
1313.068,-55.75
1313.083,-55.67
1313.098,-55.87
1313.113,-55.84
1313.128,-55.62
1313.143,-55.64
1313.158,-55.83
1313.173,-55.67
1313.188,-55.52
1313.203,-55.63
1313.218,-55.75
1313.233,-55.54
1313.248,-55.54
1313.263,-55.61
1313.278,-55.82
1313.293,-55.81
1313.308,-55.7
1313.323,-55.74
1313.338,-55.96
1313.353,-55.72
1313.368,-55.62
1313.383,-55.74
1313.398,-55.87
1313.413,-55.64
1313.428,-55.6
1313.443,-55.77
1313.458,-55.9
1313.473,-55.57
1313.488,-55.56
1313.503,-55.59
1313.518,-55.74
1313.533,-55.62
1313.548,-55.46
1313.563,-55.69
1313.578,-55.78
1313.593,-55.58
1313.608,-55.55
1313.623,-55.73
1313.638,-55.65
1313.653,-55.39
1313.668,-55.33
1313.683,-55.41
1313.698,-55.5
1313.713,-55.27
1313.728,-55.21
1313.743,-55.3
1313.758,-55.36
1313.773,-55.13
1313.788,-55.14
1313.803,-55.35
1313.818,-55.32
1313.833,-55.15
1313.848,-55.33
1313.863,-55.37
1313.878,-55.42
1313.893,-55.3
1313.908,-55.32
1313.923,-55.39
1313.938,-55.44
1313.953,-55.3
1313.968,-55.38
1313.983,-55.44
1313.998,-55.4
1314.013,-55.41
1314.028,-55.53
1314.043,-55.33
1314.058,-55.48
1314.073,-55.35
1314.088,-55.41
1314.103,-55.49
1314.118,-55.5
1314.133,-55.43
1314.148,-55.52
1314.163,-55.63
1314.178,-55.52
1314.193,-55.56
1314.208,-55.67
1314.223,-55.5
1314.238,-55.67
1314.253,-55.69
1314.268,-55.57
1314.283,-55.68
1314.298,-55.58
1314.313,-55.51
1314.328,-55.57
1314.343,-55.63
1314.358,-55.47
1314.373,-55.41
1314.388,-55.4
1314.403,-55.25
1314.418,-55.47
1314.433,-55.45
1314.448,-55.27
1314.463,-55.36
1314.478,-55.5
1314.493,-55.39
1314.508,-55.46
1314.523,-55.62
1314.538,-55.47
1314.553,-55.55
1314.568,-55.61
1314.583,-55.42
1314.598,-55.66
1314.613,-55.65
1314.628,-55.54
1314.643,-55.49
1314.658,-55.69
1314.673,-55.55
1314.688,-55.64
1314.703,-55.7
1314.718,-55.64
1314.733,-55.59
1314.748,-55.78
1314.763,-55.75
1314.778,-55.72
1314.793,-55.8
1314.808,-55.58
1314.823,-55.54
1314.838,-55.75
1314.853,-55.6
1314.868,-55.67
1314.883,-55.75
1314.898,-55.65
1314.913,-55.67
1314.928,-55.89
1314.943,-55.74
1314.958,-55.67
1314.973,-55.7
1314.988,-55.73
1315.003,-55.67
1315.018,-55.82
1315.033,-55.57
1315.048,-55.59
1315.063,-55.58
1315.078,-55.53
1315.093,-55.55
1315.108,-55.66
1315.123,-55.54
1315.138,-55.48
1315.153,-55.56
1315.168,-55.63
1315.183,-55.62
1315.198,-55.56
1315.213,-55.62
1315.228,-55.65
1315.243,-55.64
1315.258,-55.53
1315.273,-55.53
1315.288,-55.56
1315.303,-55.53
1315.318,-55.5
1315.333,-55.58
1315.348,-55.54
1315.363,-55.48
1315.378,-55.54
1315.393,-55.76
1315.408,-55.9
1315.423,-55.55
1315.438,-55.54
1315.453,-55.61
1315.468,-55.64
1315.483,-55.63
1315.498,-55.56
1315.513,-55.74
1315.528,-55.67
1315.543,-55.59
1315.558,-55.56
1315.573,-55.52
1315.588,-55.68
1315.603,-55.32
1315.618,-55.32
1315.633,-55.59
1315.648,-55.5
1315.663,-55.39
1315.678,-55.43
1315.693,-55.54
1315.708,-55.45
1315.723,-55.36
1315.738,-55.43
1315.753,-55.54
1315.768,-55.5
1315.783,-55.47
1315.798,-55.43
1315.813,-55.81
1315.828,-55.76
1315.843,-55.53
1315.858,-55.6
1315.873,-55.67
1315.888,-55.65
1315.903,-55.51
1315.918,-55.47
1315.933,-55.48
1315.948,-55.43
1315.963,-55.43
1315.978,-55.47
1315.993,-55.52
1316.008,-55.46
1316.023,-55.29
1316.038,-55.46
1316.053,-55.65
1316.068,-55.35
1316.083,-55.37
1316.098,-55.41
1316.113,-55.4
1316.128,-55.38
1316.143,-55.3
1316.158,-55.37
1316.173,-55.34
1316.188,-55.14
1316.203,-55.16
1316.218,-55.2
1316.233,-55.32
1316.248,-55.0
1316.263,-54.98
1316.278,-55.27
1316.293,-55.19
1316.308,-55.07
1316.323,-55.05
1316.338,-55.13
1316.353,-55.16
1316.368,-55.09
1316.383,-55.14
1316.398,-55.24
1316.413,-55.11
1316.428,-55.05
1316.443,-55.09
1316.458,-55.39
1316.473,-55.3
1316.488,-55.06
1316.503,-55.22
1316.518,-55.29
1316.533,-55.35
1316.548,-55.17
1316.563,-55.19
1316.578,-55.38
1316.593,-55.3
1316.608,-55.26
1316.623,-55.36
1316.638,-55.39
1316.653,-55.41
1316.668,-55.23
1316.683,-55.41
1316.698,-55.52
1316.713,-55.31
1316.728,-55.27
1316.743,-55.58
1316.758,-55.47
1316.773,-55.16
1316.788,-55.25
1316.803,-55.32
1316.818,-55.32
1316.833,-55.2
1316.848,-55.17
1316.863,-55.28
1316.878,-55.46
1316.893,-55.15
1316.908,-55.13
1316.923,-55.45
1316.938,-55.39
1316.953,-55.18
1316.968,-55.17
1316.983,-55.42
1316.998,-55.18
1317.013,-55.13
1317.028,-55.4
1317.043,-55.39
1317.058,-55.13
1317.073,-55.24
1317.088,-55.2
1317.103,-55.45
1317.118,-55.32
1317.133,-55.09
1317.148,-55.28
1317.163,-55.48
1317.178,-55.18
1317.193,-55.14
1317.208,-55.48
1317.224,-55.37
1317.238,-55.2
1317.253,-55.4
1317.268,-55.59
1317.283,-55.38
1317.298,-55.32
1317.313,-55.45
1317.328,-55.55
1317.344,-55.51
1317.359,-55.26
1317.373,-55.29
1317.388,-55.64
1317.403,-55.43
1317.418,-55.28
1317.433,-55.4
1317.448,-55.54
1317.464,-55.31
1317.479,-55.19
1317.494,-55.42
1317.509,-55.47
1317.523,-55.33
1317.538,-55.1
1317.553,-55.31
1317.568,-55.4
1317.583,-55.2
1317.599,-55.16
1317.614,-55.35
1317.629,-55.52
1317.644,-55.22
1317.658,-55.17
1317.673,-55.4
1317.688,-55.37
1317.703,-55.13
1317.719,-55.22
1317.734,-55.46
1317.749,-55.15
1317.764,-55.0
1317.779,-55.27
1317.794,-55.29
1317.808,-55.24
1317.823,-55.05
1317.839,-55.0
1317.854,-55.29
1317.869,-55.23
1317.884,-55.0
1317.899,-55.17
1317.914,-55.41
1317.929,-55.13
1317.944,-55.0
1317.958,-55.24
1317.974,-55.39
1317.989,-55.15
1318.004,-55.29
1318.019,-55.44
1318.034,-55.41
1318.049,-55.33
1318.064,-55.34
1318.079,-55.4
1318.094,-55.59
1318.109,-55.31
1318.124,-55.22
1318.139,-55.53
1318.154,-55.51
1318.169,-55.23
1318.184,-55.32
1318.199,-55.67
1318.214,-55.37
1318.229,-55.28
1318.244,-55.49
1318.259,-55.54
1318.274,-55.5
1318.289,-55.43
1318.304,-55.48
1318.319,-55.54
1318.334,-55.4
1318.349,-55.36
1318.364,-55.5
1318.379,-55.67
1318.394,-55.34
1318.409,-55.29
1318.424,-55.55
1318.439,-55.49
1318.454,-55.33
1318.469,-55.25
1318.484,-55.32
1318.499,-55.36
1318.514,-55.31
1318.529,-55.3
1318.544,-55.5
1318.559,-55.47
1318.574,-55.3
1318.589,-55.43
1318.604,-55.52
1318.619,-55.53
1318.634,-55.28
1318.649,-55.33
1318.664,-55.52
1318.679,-55.35
1318.694,-55.19
1318.709,-55.35
1318.724,-55.47
1318.739,-55.4
1318.754,-55.35
1318.769,-55.48
1318.784,-55.47
1318.799,-55.4
1318.814,-55.38
1318.829,-55.43
1318.844,-55.73
1318.859,-55.5
1318.874,-55.33
1318.889,-55.53
1318.904,-55.62
1318.919,-55.32
1318.934,-55.42
1318.949,-55.68
1318.964,-55.52
1318.979,-55.29
1318.994,-55.43
1319.009,-55.35
1319.024,-55.48
1319.039,-55.23
1319.054,-55.14
1319.069,-55.4
1319.084,-55.46
1319.099,-55.19
1319.114,-55.24
1319.129,-55.58
1319.144,-55.37
1319.159,-55.25
1319.174,-55.47
1319.189,-55.68
1319.204,-55.29
1319.219,-55.29
1319.234,-55.58
1319.249,-55.5
1319.264,-55.27
1319.279,-55.1
1319.294,-55.14
1319.309,-55.37
1319.324,-55.16
1319.339,-55.1
1319.354,-55.26
1319.369,-55.3
1319.384,-55.06
1319.399,-55.17
1319.414,-55.45
1319.429,-55.22
1319.444,-55.16
1319.459,-55.37
1319.474,-55.52
1319.489,-55.48
1319.504,-55.43
1319.519,-55.59
1319.534,-55.64
1319.549,-55.46
1319.564,-55.18
1319.579,-55.35
1319.594,-55.6
1319.609,-55.39
1319.624,-55.22
1319.639,-55.44
1319.654,-55.58
1319.669,-55.34
1319.684,-55.36
1319.699,-55.65
1319.714,-55.55
1319.729,-55.38
1319.744,-55.32
1319.759,-55.51
1319.774,-55.49
1319.789,-55.38
1319.804,-55.51
1319.819,-55.59
1319.834,-55.77
1319.849,-55.47
1319.864,-55.47
1319.879,-55.78
1319.894,-55.65
1319.909,-55.43
1319.924,-55.61
1319.939,-55.67
1319.954,-55.45
1319.969,-55.4
1319.984,-55.68
1319.999,-55.62
1320.014,-55.64
1320.029,-55.42
1320.044,-55.59
1320.059,-55.65
1320.074,-55.49
1320.089,-55.63
1320.104,-55.81
1320.119,-55.94
1320.134,-55.65
1320.149,-55.65
1320.164,-56.01
1320.179,-55.85
1320.194,-55.55
1320.209,-55.71
1320.224,-55.96
1320.239,-55.61
1320.254,-55.54
1320.269,-55.84
1320.284,-55.84
1320.299,-55.76
1320.314,-55.62
1320.329,-55.79
1320.344,-55.77
1320.359,-55.69
1320.374,-55.77
1320.389,-55.96
1320.404,-56.11
1320.419,-55.77
1320.434,-55.71
1320.449,-56.04
1320.464,-55.86
1320.479,-55.54
1320.494,-55.71
1320.509,-55.9
1320.524,-55.53
1320.539,-55.41
1320.554,-55.62
1320.569,-55.76
1320.584,-55.59
1320.599,-55.41
1320.614,-55.61
1320.629,-55.68
1320.644,-55.48
1320.659,-55.5
1320.674,-55.63
1320.689,-55.54
1320.704,-55.39
1320.719,-55.37
1320.734,-55.61
1320.749,-55.57
1320.764,-55.31
1320.779,-55.39
1320.794,-55.63
1320.809,-55.32
1320.824,-55.24
1320.839,-55.2
1320.854,-55.32
1320.869,-55.27
1320.884,-55.08
1320.899,-55.27
1320.914,-55.31
1320.929,-55.18
1320.944,-55.21
1320.959,-55.35
1320.974,-55.32
1320.989,-55.12
1321.004,-55.28
1321.019,-55.33
1321.034,-55.31
1321.049,-55.23
1321.064,-55.37
1321.079,-55.44
1321.094,-55.16
1321.109,-55.01
1321.124,-55.02
1321.139,-55.1
1321.154,-55.03
1321.169,-54.8
1321.184,-54.94
1321.199,-55.01
1321.214,-54.91
1321.229,-54.78
1321.244,-55.04
1321.259,-55.06
1321.274,-54.84
1321.289,-55.02
1321.304,-55.14
1321.319,-55.12
1321.334,-55.01
1321.349,-55.26
1321.364,-55.26
1321.379,-55.04
1321.394,-55.15
1321.409,-55.17
1321.424,-55.08
1321.439,-55.17
1321.454,-55.18
1321.469,-55.2
1321.484,-55.34
1321.499,-55.3
1321.514,-55.13
1321.529,-55.39
1321.544,-55.39
1321.559,-55.21
1321.574,-55.29
1321.589,-55.44
1321.604,-55.41
1321.619,-55.29
1321.634,-55.46
1321.649,-55.46
1321.664,-55.28
1321.679,-55.33
1321.694,-55.56
1321.709,-55.47
1321.724,-55.58
1321.739,-55.64
1321.754,-55.7
1321.769,-55.73
1321.784,-55.65
1321.799,-55.58
1321.814,-55.82
1321.829,-55.85
1321.844,-55.7
1321.859,-55.8
1321.874,-55.95
1321.889,-55.89
1321.904,-55.76
1321.919,-55.96
1321.934,-55.95
1321.949,-55.75
1321.964,-55.84
1321.979,-56.03
1321.994,-55.96
1322.009,-55.77
1322.024,-55.9
1322.039,-56.13
1322.054,-56.07
1322.069,-55.73
1322.084,-55.71
1322.099,-55.9
1322.114,-55.92
1322.129,-55.73
1322.144,-55.76
1322.159,-56.0
1322.174,-55.94
1322.189,-55.78
1322.204,-55.95
1322.219,-56.02
1322.234,-55.97
1322.249,-55.92
1322.264,-56.01
1322.279,-56.01
1322.294,-55.8
1322.309,-55.7
1322.324,-55.98
1322.339,-56.05
1322.354,-55.71
1322.369,-55.7
1322.384,-56.01
1322.399,-55.82
1322.414,-55.59
1322.429,-55.88
1322.444,-55.94
1322.459,-55.7
1322.474,-55.62
1322.489,-55.79
1322.504,-55.77
1322.519,-55.82
1322.534,-55.69
1322.549,-55.83
1322.564,-55.85
1322.579,-55.69
1322.594,-55.85
1322.609,-56.05
1322.624,-56.11
1322.639,-55.76
1322.654,-55.76
1322.669,-56.09
1322.684,-55.85
1322.699,-55.57
1322.714,-55.76
1322.729,-55.84
1322.744,-55.56
1322.759,-55.39
1322.774,-55.57
1322.789,-55.66
1322.804,-55.56
1322.819,-55.42
1322.834,-55.61
1322.849,-55.67
1322.864,-55.49
1322.879,-55.56
1322.894,-55.69
1322.909,-55.56
1322.924,-55.43
1322.939,-55.6
1322.954,-55.69
1322.969,-55.56
1322.984,-55.48
1322.999,-55.66
1323.014,-55.86
1323.029,-55.57
1323.044,-55.41
1323.059,-55.54
1323.074,-55.63
1323.089,-55.63
1323.104,-55.58
1323.119,-55.82
1323.134,-55.82
1323.149,-55.72
1323.164,-55.75
1323.179,-55.93
1323.194,-55.89
1323.209,-55.69
1323.224,-55.87
1323.239,-55.91
1323.254,-55.75
1323.269,-55.75
1323.284,-55.96
1323.299,-55.86
1323.314,-55.81
1323.329,-55.84
1323.344,-55.76
1323.359,-55.7
1323.374,-55.68
1323.389,-55.56
1323.404,-55.84
1323.419,-55.84
1323.434,-55.53
1323.449,-55.57
1323.464,-55.81
1323.479,-55.81
1323.494,-55.46
1323.509,-55.62
1323.524,-55.73
1323.539,-55.51
1323.554,-55.48
1323.569,-55.72
1323.584,-55.72
1323.599,-55.45
1323.614,-55.45
1323.629,-55.5
1323.644,-55.46
1323.659,-55.49
1323.674,-55.51
1323.689,-55.55
1323.704,-55.57
1323.719,-55.54
1323.734,-55.57
1323.749,-55.84
1323.764,-55.79
1323.779,-55.6
1323.794,-55.63
1323.809,-55.87
1323.824,-55.78
1323.839,-55.57
1323.854,-55.83
1323.869,-55.9
1323.884,-55.56
1323.899,-55.45
1323.914,-55.84
1323.929,-55.7
1323.944,-55.48
1323.959,-55.63
1323.974,-55.71
1323.989,-55.49
1324.004,-55.4
1324.019,-55.36
1324.034,-55.4
1324.049,-55.41
1324.064,-55.37
1324.079,-55.51
1324.094,-55.48
1324.109,-55.43
1324.124,-55.4
1324.139,-55.56
1324.154,-55.66
1324.169,-55.38
1324.184,-55.31
1324.199,-55.56
1324.214,-55.52
1324.229,-55.29
1324.244,-55.41
1324.259,-55.64
1324.274,-55.43
1324.289,-55.32
1324.304,-55.5
1324.319,-55.67
1324.334,-55.49
1324.349,-55.49
1324.364,-55.72
1324.379,-55.73
1324.394,-55.73
1324.409,-55.69
1324.424,-55.69
1324.439,-55.69
1324.454,-55.71
1324.469,-55.68
1324.484,-55.55
1324.499,-55.61
1324.514,-55.46
1324.529,-55.48
1324.544,-55.71
1324.559,-55.59
1324.574,-55.4
1324.589,-55.48
1324.604,-55.6
1324.619,-55.45
1324.634,-55.33
1324.649,-55.55
1324.664,-55.62
1324.679,-55.33
1324.694,-55.4
1324.709,-55.52
1324.724,-55.4
1324.739,-55.34
1324.754,-55.35
1324.769,-55.32
1324.784,-55.31
1324.799,-55.37
1324.814,-55.27
1324.829,-55.22
1324.844,-55.26
1324.859,-55.23
1324.874,-55.15
1324.889,-55.33
1324.904,-55.32
1324.919,-55.21
1324.934,-55.41
1324.949,-55.43
1324.964,-55.29
1324.979,-55.31
1324.994,-55.48
1325.009,-55.43
1325.024,-55.32
1325.039,-55.57
1325.054,-55.6
1325.069,-55.48
1325.084,-55.37
1325.099,-55.5
1325.114,-55.5
1325.129,-55.36
1325.144,-55.39
1325.159,-55.26
1325.174,-55.22
1325.189,-55.29
1325.204,-55.26
1325.219,-55.21
1325.234,-55.2
1325.25,-55.29
1325.264,-55.18
1325.279,-55.35
1325.294,-55.22
1325.309,-55.07
1325.324,-55.25
1325.339,-55.33
1325.354,-55.24
1325.37,-55.18
1325.385,-55.32
1325.4,-55.39
1325.414,-55.21
1325.429,-55.26
1325.444,-55.36
1325.459,-55.27
1325.474,-55.12
1325.49,-55.32
1325.505,-55.3
1325.52,-55.36
1325.535,-55.45
1325.549,-55.41
1325.564,-55.36
1325.579,-55.43
1325.594,-55.54
1325.609,-55.47
1325.625,-55.47
1325.64,-55.52
1325.655,-55.54
1325.67,-55.42
1325.685,-55.52
1325.699,-55.55
1325.714,-55.55
1325.729,-55.78
1325.745,-55.71
1325.76,-55.46
1325.775,-55.68
1325.79,-55.7
1325.805,-55.56
1325.82,-55.53
1325.834,-55.72
1325.849,-55.72
1325.865,-55.46
1325.88,-55.64
1325.895,-55.57
1325.91,-55.56
1325.925,-55.54
1325.94,-55.51
1325.955,-55.45
1325.97,-55.53
1325.984,-55.64
1326.0,-55.57
1326.015,-55.53
1326.03,-55.63
1326.045,-55.6
1326.06,-55.56
1326.075,-55.51
1326.09,-55.52
1326.105,-55.49
1326.12,-55.4
1326.135,-55.47
1326.15,-55.44
1326.165,-55.4
1326.18,-55.47
1326.195,-55.55
1326.21,-55.52
1326.225,-55.52
1326.24,-55.6
1326.255,-55.61
1326.27,-55.71
1326.285,-55.39
1326.3,-55.51
1326.315,-55.82
1326.33,-55.54
1326.345,-55.51
1326.36,-55.48
1326.375,-55.43
1326.39,-55.42
1326.405,-55.33
1326.42,-55.39
1326.435,-55.34
1326.45,-55.28
1326.465,-55.27
1326.48,-55.33
1326.495,-55.31
1326.51,-55.28
1326.525,-55.28
1326.54,-55.34
1326.555,-55.26
1326.57,-55.22
1326.585,-55.33
1326.6,-55.31
1326.615,-55.21
1326.63,-55.19
1326.645,-55.32
1326.66,-55.21
1326.675,-55.13
1326.69,-55.19
1326.705,-55.32
1326.72,-55.3
1326.735,-55.06
1326.75,-55.15
1326.765,-55.39
1326.78,-55.14
1326.795,-55.06
1326.81,-55.17
1326.825,-55.27
1326.84,-55.06
1326.855,-55.11
1326.87,-55.45
1326.885,-55.23
1326.9,-55.12
1326.915,-55.27
1326.93,-55.42
1326.945,-55.21
1326.96,-55.16
1326.975,-55.16
1326.99,-55.11
1327.005,-55.1
1327.02,-55.11
1327.035,-55.17
1327.05,-55.2
1327.065,-55.12
1327.08,-55.2
1327.095,-55.25
1327.11,-55.25
1327.125,-55.23
1327.14,-55.29
1327.155,-55.33
1327.17,-55.29
1327.185,-55.26
1327.2,-55.31
1327.215,-55.34
1327.23,-55.15
1327.245,-55.22
1327.26,-55.29
1327.275,-55.18
1327.29,-55.18
1327.305,-55.23
1327.32,-55.25
1327.335,-55.21
1327.35,-55.05
1327.365,-55.16
1327.38,-55.37
1327.395,-55.12
1327.41,-55.16
1327.425,-55.35
1327.44,-55.25
1327.455,-55.12
1327.47,-55.22
1327.485,-55.51
1327.5,-55.21
1327.515,-55.25
1327.53,-55.53
1327.545,-55.45
1327.56,-55.26
1327.575,-55.31
1327.59,-55.25
1327.605,-55.25
1327.62,-55.24
1327.635,-55.28
1327.65,-55.28
1327.665,-55.33
1327.68,-55.25
1327.695,-55.32
1327.71,-55.25
1327.725,-55.22
1327.74,-55.19
1327.755,-55.26
1327.77,-55.3
1327.785,-55.26
1327.8,-55.25
1327.815,-55.39
1327.83,-55.37
1327.845,-55.34
1327.86,-55.39
1327.875,-55.4
1327.89,-55.3
1327.905,-55.25
1327.92,-55.3
1327.935,-55.39
1327.95,-55.27
1327.965,-55.27
1327.98,-55.57
1327.995,-55.52
1328.01,-55.27
1328.025,-55.34
1328.04,-55.53
1328.055,-55.24
1328.07,-55.18
1328.085,-55.41
1328.1,-55.46
1328.115,-55.17
1328.13,-55.27
1328.145,-55.53
1328.16,-55.39
1328.175,-55.17
1328.19,-55.19
1328.205,-55.21
1328.22,-55.13
1328.235,-55.14
1328.25,-55.19
1328.265,-55.2
1328.28,-55.14
1328.295,-55.17
1328.31,-55.24
1328.325,-55.25
1328.34,-55.2
1328.355,-55.26
1328.37,-55.34
1328.385,-55.3
1328.4,-55.28
1328.415,-55.32
1328.43,-55.37
1328.445,-55.35
1328.46,-55.33
1328.475,-55.45
1328.49,-55.41
1328.505,-55.37
1328.52,-55.31
1328.535,-55.39
1328.55,-55.28
1328.565,-55.22
1328.58,-55.26
1328.595,-55.58
1328.61,-55.44
1328.625,-55.29
1328.64,-55.44
1328.655,-55.54
1328.67,-55.25
1328.685,-55.32
1328.7,-55.58
1328.715,-55.54
1328.73,-55.28
1328.745,-55.45
1328.76,-55.65
1328.775,-55.37
1328.79,-55.25
1328.805,-55.28
1328.82,-55.3
1328.835,-55.24
1328.85,-55.23
1328.865,-55.3
1328.88,-55.22
1328.895,-55.18
1328.91,-55.26
1328.925,-55.34
1328.94,-55.3
1328.955,-55.22
1328.97,-55.3
1328.985,-55.27
1329.0,-55.27
1329.015,-55.32
1329.03,-55.43
1329.045,-55.45
1329.06,-55.44
1329.075,-55.47
1329.09,-55.41
1329.105,-55.42
1329.12,-55.37
1329.135,-55.41
1329.15,-55.47
1329.165,-55.36
1329.18,-55.34
1329.195,-55.57
1329.21,-55.82
1329.225,-55.62
1329.24,-55.6
1329.255,-55.86
1329.27,-55.83
1329.285,-55.6
1329.3,-55.74
1329.315,-56.04
1329.33,-55.72
1329.345,-55.59
1329.36,-55.79
1329.375,-55.93
1329.39,-55.69
1329.405,-55.62
1329.42,-55.65
1329.435,-55.66
1329.45,-55.57
1329.465,-55.54
1329.48,-55.57
1329.495,-55.48
1329.51,-55.47
1329.525,-55.56
1329.54,-55.45
1329.555,-55.51
1329.57,-55.45
1329.585,-55.54
1329.6,-55.54
1329.615,-55.44
1329.63,-55.47
1329.645,-55.52
1329.66,-55.56
1329.675,-55.53
1329.69,-55.54
1329.705,-55.56
1329.72,-55.47
1329.735,-55.5
1329.75,-55.53
1329.765,-55.51
1329.78,-55.44
1329.795,-55.39
1329.81,-55.66
1329.825,-55.71
1329.84,-55.5
1329.855,-55.53
1329.87,-55.78
1329.885,-55.55
1329.9,-55.48
1329.915,-55.74
1329.93,-55.84
1329.945,-55.52
1329.96,-55.52
1329.975,-55.76
1329.99,-55.72
1330.005,-55.5
1330.02,-55.54
1330.035,-55.74
1330.05,-55.45
1330.065,-55.33
1330.08,-55.51
1330.095,-55.56
1330.11,-55.28
1330.125,-55.33
1330.14,-55.62
1330.155,-55.38
1330.17,-55.23
1330.185,-55.46
1330.2,-55.54
1330.215,-55.25
1330.23,-55.26
1330.245,-55.53
1330.26,-55.38
1330.275,-55.23
1330.29,-55.4
1330.305,-55.49
1330.32,-55.18
1330.335,-55.08
1330.35,-55.31
1330.365,-55.27
1330.38,-55.02
1330.395,-55.05
1330.41,-55.3
1330.425,-55.33
1330.44,-55.12
1330.455,-55.19
1330.47,-55.42
1330.485,-55.35
1330.5,-55.19
1330.515,-55.31
1330.53,-55.45
1330.545,-55.31
1330.56,-55.22
1330.575,-55.54
1330.59,-55.47
1330.605,-55.25
1330.62,-55.37
1330.635,-55.42
1330.65,-55.52
1330.665,-55.24
1330.68,-55.26
1330.695,-55.53
1330.71,-55.36
1330.725,-55.22
1330.74,-55.33
1330.755,-55.44
1330.77,-55.17
1330.785,-55.14
1330.8,-55.42
1330.815,-55.28
1330.83,-55.13
1330.845,-55.23
1330.86,-55.47
1330.875,-55.2
1330.89,-55.19
1330.905,-55.52
1330.92,-55.38
1330.935,-55.14
1330.95,-55.24
1330.965,-55.53
1330.98,-55.31
1330.995,-55.13
1331.01,-55.34
1331.025,-55.47
1331.04,-55.15
1331.055,-55.17
1331.07,-55.5
1331.085,-55.39
1331.1,-55.2
1331.115,-55.37
1331.13,-55.56
1331.145,-55.32
1331.16,-55.26
1331.175,-55.56
1331.19,-55.5
1331.205,-55.32
1331.22,-55.46
1331.235,-55.69
1331.25,-55.64
1331.265,-55.5
1331.28,-55.44
1331.295,-55.55
1331.31,-55.54
1331.325,-55.42
1331.34,-55.54
1331.355,-55.66
1331.37,-55.55
1331.385,-55.52
1331.4,-55.7
1331.415,-55.61
1331.43,-55.5
1331.445,-55.55
1331.46,-55.65
1331.475,-55.54
1331.49,-55.49
1331.505,-55.6
1331.52,-55.67
1331.535,-55.43
1331.55,-55.54
1331.565,-55.63
1331.58,-55.44
1331.595,-55.33
1331.61,-55.39
1331.625,-55.5
1331.64,-55.43
1331.655,-55.19
1331.67,-55.32
1331.685,-55.57
1331.7,-55.25
1331.715,-55.26
1331.73,-55.5
1331.745,-55.53
1331.76,-55.32
1331.775,-55.46
1331.79,-55.68
1331.805,-55.53
1331.82,-55.52
1331.835,-55.79
1331.85,-55.84
1331.865,-55.46
1331.88,-55.5
1331.895,-55.77
1331.91,-55.44
1331.925,-55.28
1331.94,-55.51
1331.955,-55.6
1331.97,-55.32
1331.985,-55.32
1332.0,-55.6
1332.015,-55.54
1332.03,-55.32
1332.045,-55.4
1332.06,-55.74
1332.075,-55.49
1332.09,-55.41
1332.105,-55.7
1332.12,-55.74
1332.135,-55.52
1332.15,-55.58
1332.165,-55.85
1332.18,-55.6
1332.195,-55.45
1332.21,-55.59
1332.225,-55.64
1332.24,-55.4
1332.255,-55.23
1332.27,-55.43
1332.285,-55.57
1332.3,-55.45
1332.315,-55.34
1332.33,-55.63
1332.345,-55.6
1332.36,-55.35
1332.375,-55.54
1332.39,-55.78
1332.405,-55.81
1332.42,-55.58
1332.435,-55.65
1332.45,-55.97
1332.465,-55.78
1332.48,-55.56
1332.495,-55.7
1332.51,-55.88
1332.525,-55.53
1332.54,-55.61
1332.555,-55.77
1332.57,-55.73
1332.585,-55.52
1332.6,-55.71
1332.615,-56.13
1332.63,-55.74
1332.645,-55.62
1332.66,-55.89
1332.675,-56.08
1332.69,-55.68
1332.705,-55.69
1332.72,-55.98
1332.735,-55.78
1332.75,-55.58
1332.765,-55.79
1332.78,-55.89
1332.795,-55.61
1332.81,-55.52
1332.825,-55.75
1332.84,-55.51
1332.855,-55.31
1332.87,-55.49
1332.885,-55.77
1332.9,-55.51
1332.915,-55.52
1332.93,-55.79
1332.945,-55.84
1332.96,-55.57
1332.975,-55.57
1332.99,-55.89
1333.005,-55.69
1333.02,-55.51
1333.035,-55.67
1333.05,-55.94
1333.065,-55.59
1333.08,-55.46
1333.095,-55.73
1333.11,-55.59
1333.125,-55.32
1333.141,-55.42
1333.155,-55.6
1333.17,-55.39
1333.185,-55.3
1333.2,-55.57
1333.215,-55.57
1333.23,-55.38
1333.245,-55.51
1333.26,-55.75
1333.276,-55.51
1333.29,-55.38
1333.305,-55.64
1333.32,-55.74
1333.335,-55.37
1333.35,-55.4
1333.365,-55.72
1333.38,-55.56
1333.396,-55.38
1333.411,-55.26
1333.426,-55.43
1333.44,-55.34
1333.455,-55.14
1333.47,-55.27
1333.485,-55.33
1333.5,-55.29
1333.516,-55.14
1333.531,-55.32
1333.546,-55.32
1333.561,-55.23
1333.575,-55.31
1333.59,-55.51
1333.605,-55.45
1333.62,-55.23
1333.635,-55.42
1333.651,-55.5
1333.666,-55.33
1333.681,-55.26
1333.696,-55.44
1333.711,-55.44
1333.725,-55.21
1333.74,-55.35
1333.755,-55.44
1333.771,-55.28
1333.786,-55.18
1333.801,-55.44
1333.816,-55.42
1333.831,-55.24
1333.846,-55.43
1333.86,-55.59
1333.875,-55.46
1333.891,-55.32
1333.906,-55.54
1333.921,-55.47
1333.936,-55.39
1333.951,-55.37
1333.966,-55.44
1333.981,-55.47
1333.996,-55.31
1334.01,-55.47
1334.026,-55.5
1334.041,-55.37
1334.056,-55.31
1334.071,-55.36
1334.086,-55.44
1334.101,-55.29
1334.116,-55.37
1334.131,-55.42
1334.146,-55.35
1334.161,-55.28
1334.176,-55.41
1334.191,-55.37
1334.206,-55.23
1334.221,-55.36
1334.236,-55.45
1334.251,-55.32
1334.266,-55.15
1334.281,-55.41
1334.296,-55.44
1334.311,-55.2
1334.326,-55.08
1334.341,-55.3
1334.356,-55.29
1334.371,-55.12
1334.386,-55.2
1334.401,-55.24
1334.416,-55.16
1334.431,-55.06
1334.446,-55.29
1334.461,-55.31
1334.476,-55.12
1334.491,-55.2
1334.506,-55.32
1334.521,-55.25
1334.536,-55.16
1334.551,-55.36
1334.566,-55.36
1334.581,-55.21
1334.596,-55.14
1334.611,-55.3
1334.626,-55.19
1334.641,-55.0
1334.656,-55.17
1334.671,-55.32
1334.686,-55.15
1334.701,-55.1
1334.716,-55.32
1334.731,-55.31
1334.746,-55.17
1334.761,-55.29
1334.776,-55.43
1334.791,-55.37
1334.806,-55.21
1334.821,-55.47
1334.836,-55.5
1334.851,-55.37
1334.866,-55.3
1334.881,-55.57
1334.896,-55.48
1334.911,-55.27
1334.926,-55.45
1334.941,-55.43
1334.956,-55.19
1334.971,-55.21
1334.986,-55.42
1335.001,-55.37
1335.016,-55.12
1335.031,-55.29
1335.046,-55.45
1335.061,-55.25
1335.076,-55.19
1335.091,-55.37
1335.106,-55.39
1335.121,-55.22
1335.136,-55.33
1335.151,-55.56
1335.166,-55.4
1335.181,-55.21
1335.196,-55.48
1335.211,-55.55
1335.226,-55.27
1335.241,-55.36
1335.256,-55.53
1335.271,-55.53
1335.286,-55.23
1335.301,-55.38
1335.316,-55.52
1335.331,-55.44
1335.346,-55.32
1335.361,-55.59
1335.376,-55.61
1335.391,-55.38
1335.406,-55.53
1335.421,-55.58
1335.436,-55.69
1335.451,-55.68
1335.466,-55.58
1335.481,-55.61
1335.496,-55.73
1335.511,-55.68
1335.526,-55.66
1335.541,-55.67
1335.556,-55.69
1335.571,-55.61
1335.586,-55.63
1335.601,-55.78
1335.616,-55.67
1335.631,-55.62
1335.646,-55.74
1335.661,-55.83
1335.676,-55.69
1335.691,-55.78
1335.706,-55.77
1335.721,-55.81
1335.736,-55.8
1335.751,-55.83
1335.766,-55.88
1335.781,-55.81
1335.796,-55.76
1335.811,-55.86
1335.826,-55.81
1335.841,-55.78
1335.856,-55.7
1335.871,-55.81
1335.886,-55.74
1335.901,-55.67
1335.916,-55.68
1335.931,-55.75
1335.946,-55.67
1335.961,-55.75
1335.976,-55.83
1335.991,-55.78
1336.006,-55.74
1336.021,-55.85
1336.036,-55.87
1336.051,-55.75
1336.066,-55.72
1336.081,-55.79
1336.096,-55.86
1336.111,-55.81
1336.126,-55.74
1336.141,-55.84
1336.156,-55.67
1336.171,-55.64
1336.186,-55.69
1336.201,-55.7
1336.216,-55.6
1336.231,-55.65
1336.246,-55.58
1336.261,-55.59
1336.276,-55.54
1336.291,-55.58
1336.306,-55.58
1336.321,-55.5
1336.336,-55.53
1336.351,-55.62
1336.366,-55.59
1336.381,-55.5
1336.396,-55.56
1336.411,-55.56
1336.426,-55.61
1336.441,-55.5
1336.456,-55.32
1336.471,-55.55
1336.486,-55.62
1336.501,-55.41
1336.516,-55.45
1336.531,-55.56
1336.546,-55.56
1336.561,-55.35
1336.576,-55.56
1336.591,-55.67
1336.606,-55.42
1336.621,-55.42
1336.636,-55.64
1336.651,-55.62
1336.666,-55.32
1336.681,-55.46
1336.696,-55.59
1336.711,-55.52
1336.726,-55.31
1336.741,-55.49
1336.756,-55.53
1336.771,-55.22
1336.786,-55.2
1336.801,-55.4
1336.816,-55.24
1336.831,-55.08
1336.846,-55.23
1336.861,-55.4
1336.876,-55.23
1336.891,-55.12
1336.906,-55.42
1336.921,-55.44
1336.936,-55.17
1336.951,-55.39
1336.966,-55.46
1336.981,-55.39
1336.996,-55.3
1337.011,-55.51
1337.026,-55.51
1337.041,-55.26
1337.056,-55.32
1337.071,-55.52
1337.086,-55.46
1337.101,-55.24
1337.116,-55.38
1337.131,-55.47
1337.146,-55.3
1337.161,-55.29
1337.176,-55.57
1337.191,-55.66
1337.206,-55.37
1337.221,-55.62
1337.236,-55.74
1337.251,-55.64
1337.266,-55.49
1337.281,-55.61
1337.296,-55.65
1337.311,-55.51
1337.326,-55.65
1337.341,-55.67
1337.356,-55.63
1337.371,-55.42
1337.386,-55.62
1337.401,-55.57
1337.416,-55.39
1337.431,-55.52
1337.446,-55.63
1337.461,-55.55
1337.476,-55.39
1337.491,-55.52
1337.506,-55.6
1337.521,-55.42
1337.536,-55.42
1337.551,-55.66
1337.566,-55.6
1337.581,-55.47
1337.596,-55.53
1337.611,-55.67
1337.626,-55.44
1337.641,-55.31
1337.656,-55.5
1337.671,-55.54
1337.686,-55.36
1337.701,-55.32
1337.716,-55.42
1337.731,-55.43
1337.746,-55.27
1337.761,-55.41
1337.776,-55.55
1337.791,-55.42
1337.806,-55.42
1337.821,-55.66
1337.836,-55.61
1337.851,-55.45
1337.866,-55.55
1337.881,-55.65
1337.896,-55.58
1337.911,-55.39
1337.926,-55.62
1337.941,-55.63
1337.956,-55.39
1337.971,-55.41
1337.986,-55.58
1338.001,-55.39
1338.016,-55.2
1338.031,-55.39
1338.046,-55.46
1338.061,-55.34
1338.076,-55.3
1338.091,-55.53
1338.106,-55.48
1338.121,-55.31
1338.136,-55.44
1338.151,-55.38
1338.166,-55.52
1338.181,-55.45
1338.196,-55.31
1338.211,-55.41
1338.226,-55.45
1338.241,-55.31
1338.256,-55.27
1338.271,-55.31
1338.286,-55.4
1338.301,-55.31
1338.316,-55.26
1338.331,-55.27
1338.346,-55.3
1338.361,-55.27
1338.376,-55.38
1338.391,-55.3
1338.406,-55.28
1338.421,-55.36
1338.436,-55.38
1338.451,-55.37
1338.466,-55.31
1338.481,-55.36
1338.496,-55.39
1338.511,-55.35
1338.526,-55.33
1338.541,-55.37
1338.556,-55.32
1338.571,-55.29
1338.586,-55.29
1338.601,-55.32
1338.616,-55.22
1338.631,-55.23
1338.646,-55.32
1338.661,-55.36
1338.676,-55.23
1338.691,-55.26
1338.706,-55.33
1338.721,-55.27
1338.736,-55.21
1338.751,-55.33
1338.766,-55.38
1338.781,-55.28
1338.796,-55.3
1338.811,-55.38
1338.826,-55.3
1338.841,-55.28
1338.856,-55.32
1338.871,-55.3
1338.886,-55.23
1338.901,-55.18
1338.916,-55.33
1338.931,-55.25
1338.946,-55.17
1338.961,-55.22
1338.976,-55.34
1338.991,-55.22
1339.006,-55.27
1339.021,-55.41
1339.036,-55.43
1339.051,-55.33
1339.066,-55.33
1339.081,-55.46
1339.096,-55.34
1339.111,-55.27
1339.126,-55.36
1339.141,-55.14
1339.156,-55.24
1339.171,-55.23
1339.186,-55.18
1339.201,-55.12
1339.216,-55.23
1339.231,-55.19
1339.246,-55.17
1339.261,-55.17
1339.276,-55.22
1339.291,-55.14
1339.306,-55.14
1339.321,-55.21
1339.336,-55.23
1339.351,-55.26
1339.366,-55.25
1339.381,-55.3
1339.396,-55.32
1339.411,-55.34
1339.426,-55.45
1339.441,-55.41
1339.456,-55.41
1339.471,-55.35
1339.486,-55.43
1339.501,-55.4
1339.516,-55.34
1339.531,-55.35
1339.546,-55.36
1339.561,-55.31
1339.576,-55.29
1339.591,-55.37
1339.606,-55.36
1339.621,-55.35
1339.636,-55.35
1339.651,-55.4
1339.666,-55.4
1339.681,-55.4
1339.696,-55.47
1339.711,-55.51
1339.726,-55.58
1339.741,-55.55
1339.756,-55.52
1339.771,-55.54
1339.786,-55.43
1339.801,-55.49
1339.816,-55.41
1339.831,-55.48
1339.846,-55.45
1339.861,-55.48
1339.876,-55.4
1339.891,-55.23
1339.906,-55.45
1339.921,-55.52
1339.936,-55.27
1339.951,-55.28
1339.966,-55.51
1339.981,-55.5
1339.996,-55.29
1340.011,-55.44
1340.026,-55.65
1340.041,-55.3
1340.056,-55.24
1340.071,-55.49
1340.086,-55.46
1340.101,-55.25
1340.116,-55.35
1340.131,-55.49
1340.146,-55.55
1340.161,-55.54
1340.176,-55.61
1340.191,-55.57
1340.206,-55.56
1340.221,-55.54
1340.236,-55.58
1340.251,-55.52
1340.266,-55.46
1340.281,-55.56
1340.296,-55.67
1340.311,-55.63
1340.326,-55.69
1340.341,-55.76
1340.356,-55.64
1340.371,-55.52
1340.386,-55.52
1340.401,-55.5
1340.416,-55.41
1340.431,-55.35
1340.446,-55.36
1340.461,-55.3
1340.476,-55.36
1340.491,-55.37
1340.506,-55.29
1340.521,-55.23
1340.536,-55.23
1340.551,-55.38
1340.566,-55.15
1340.581,-55.22
1340.596,-55.41
1340.611,-55.23
1340.626,-55.02
1340.641,-55.19
1340.656,-55.38
1340.671,-55.1
1340.686,-54.99
1340.701,-55.24
1340.716,-55.19
1340.731,-54.87
1340.746,-54.96
1340.761,-55.22
1340.776,-55.02
1340.791,-54.96
1340.806,-55.14
1340.821,-55.29
1340.836,-54.98
1340.851,-54.99
1340.866,-55.17
1340.881,-55.17
1340.896,-55.11
1340.911,-55.19
1340.926,-55.24
1340.941,-55.17
1340.956,-55.12
1340.971,-55.24
1340.986,-55.01
1341.001,-55.09
1341.016,-55.35
1341.031,-55.11
1341.046,-55.08
1341.061,-55.28
1341.076,-55.31
1341.091,-55.12
1341.106,-55.19
1341.121,-55.47
1341.136,-55.3
1341.151,-55.16
1341.167,-55.29
1341.181,-55.5
1341.196,-55.27
1341.211,-55.31
1341.226,-55.57
1341.241,-55.41
1341.256,-55.18
1341.271,-55.28
1341.286,-55.54
1341.302,-55.16
1341.316,-55.07
1341.331,-55.28
1341.346,-55.26
1341.361,-55.06
1341.376,-55.18
1341.391,-55.39
1341.406,-55.07
1341.422,-55.19
1341.437,-55.43
1341.452,-55.37
1341.466,-55.18
1341.481,-55.37
1341.496,-55.48
1341.511,-55.35
1341.526,-55.3
1341.542,-55.62
1341.557,-55.35
1341.572,-55.33
1341.587,-55.52
1341.601,-55.43
1341.616,-55.28
1341.631,-55.45
1341.646,-55.65
1341.661,-55.38
1341.677,-55.32
1341.692,-55.58
1341.707,-55.6
1341.722,-55.39
1341.737,-55.46
1341.751,-55.73
1341.766,-55.54
1341.781,-55.32
1341.797,-55.49
1341.812,-55.6
1341.827,-55.32
1341.842,-55.39
1341.857,-55.63
1341.872,-55.58
1341.887,-55.37
1341.901,-55.56
1341.917,-55.74
1341.932,-55.44
1341.947,-55.36
1341.962,-55.7
1341.977,-55.59
1341.992,-55.5
1342.007,-55.45
1342.022,-55.36
1342.036,-55.34
1342.052,-55.33
1342.067,-55.47
1342.082,-55.22
1342.097,-55.25
1342.112,-55.48
1342.127,-55.28
1342.142,-55.2
1342.157,-55.32
1342.172,-55.51
1342.187,-55.14
1342.202,-55.1
1342.217,-55.23
1342.232,-55.18
1342.247,-54.95
1342.262,-55.07
1342.277,-55.39
1342.292,-55.11
1342.307,-55.18
1342.322,-55.33
1342.337,-55.39
1342.352,-55.17
1342.367,-55.22
1342.382,-55.4
1342.397,-55.26
1342.412,-55.31
1342.427,-55.42
1342.442,-55.35
1342.457,-55.29
1342.472,-55.35
1342.487,-55.31
1342.502,-55.29
1342.517,-55.17
1342.532,-55.35
1342.547,-55.27
1342.562,-55.3
1342.577,-55.34
1342.592,-55.39
1342.607,-55.29
1342.622,-55.31
1342.637,-55.34
1342.652,-55.29
1342.667,-55.37
1342.682,-55.52
1342.697,-55.64
1342.712,-55.38
1342.727,-55.38
1342.742,-55.75
1342.757,-55.56
1342.772,-55.37
1342.787,-55.54
1342.802,-55.68
1342.817,-55.39
1342.832,-55.38
1342.847,-55.65
1342.862,-55.6
1342.877,-55.34
1342.892,-55.36
1342.907,-55.6
1342.922,-55.38
1342.937,-55.24
1342.952,-55.44
1342.967,-55.51
1342.982,-55.26
1342.997,-55.34
1343.012,-55.72
1343.027,-55.59
1343.042,-55.36
1343.057,-55.5
1343.072,-55.54
1343.087,-55.55
1343.102,-55.68
1343.117,-55.59
1343.132,-55.43
1343.147,-55.46
1343.162,-55.63
1343.177,-55.39
1343.192,-55.34
1343.207,-55.59
1343.222,-55.64
1343.237,-55.42
1343.252,-55.51
1343.267,-55.82
1343.282,-55.59
1343.297,-55.51
1343.312,-55.57
1343.327,-55.72
1343.342,-55.53
1343.357,-55.53
1343.372,-55.73
1343.387,-55.65
1343.402,-55.49
1343.417,-55.63
1343.432,-55.75
1343.447,-55.5
1343.462,-55.48
1343.477,-55.61
1343.492,-55.67
1343.507,-55.47
1343.522,-55.85
1343.537,-55.73
1343.552,-55.51
1343.567,-55.67
1343.582,-55.92
1343.597,-55.65
1343.612,-55.55
1343.627,-55.93
1343.642,-55.98
1343.657,-55.7
1343.672,-55.62
1343.687,-55.78
1343.702,-55.41
1343.717,-55.39
1343.732,-55.61
1343.747,-55.47
1343.762,-55.27
1343.777,-55.41
1343.792,-55.64
1343.807,-55.43
1343.822,-55.41
1343.837,-55.69
1343.852,-55.66
1343.867,-55.36
1343.882,-55.43
1343.897,-55.8
1343.912,-55.66
1343.927,-55.5
1343.942,-55.88
1343.957,-55.76
1343.972,-55.49
1343.987,-55.69
1344.002,-55.79
1344.017,-55.45
1344.032,-55.41
1344.047,-55.76
1344.062,-55.7
1344.077,-55.47
1344.092,-55.59
1344.107,-55.73
1344.122,-55.47
1344.137,-55.52
1344.152,-55.81
1344.167,-55.58
1344.182,-55.49
1344.197,-55.68
1344.212,-55.81
1344.227,-55.59
1344.242,-55.53
1344.257,-55.87
1344.272,-55.68
1344.287,-55.5
1344.302,-55.57
1344.317,-55.81
1344.332,-55.54
1344.347,-55.41
1344.362,-55.55
1344.377,-55.37
1344.392,-55.26
1344.407,-55.55
1344.422,-55.55
1344.437,-55.24
1344.452,-55.33
1344.467,-55.51
1344.482,-55.42
1344.497,-55.25
1344.512,-55.45
1344.527,-55.29
1344.542,-55.24
1344.557,-55.4
1344.572,-55.49
1344.587,-55.22
1344.602,-55.25
1344.617,-55.5
1344.632,-55.33
1344.647,-55.15
1344.662,-55.16
1344.677,-55.47
1344.692,-55.24
1344.707,-55.25
1344.722,-55.42
1344.737,-55.51
1344.752,-55.29
1344.767,-55.36
1344.782,-55.61
1344.797,-55.26
1344.812,-55.38
1344.827,-55.62
1344.842,-55.4
1344.857,-55.11
1344.872,-55.43
1344.887,-55.54
1344.902,-55.23
1344.917,-55.14
1344.932,-55.44
1344.947,-55.13
1344.962,-55.08
1344.977,-55.37
1344.992,-55.33
1345.007,-55.14
1345.022,-55.23
1345.037,-55.44
1345.052,-55.27
1345.067,-55.23
1345.082,-55.35
1345.097,-55.49
1345.112,-55.2
1345.127,-55.26
1345.142,-55.5
1345.157,-55.32
1345.172,-55.16
1345.187,-55.33
1345.202,-55.55
1345.217,-55.17
1345.232,-55.19
1345.247,-55.44
1345.262,-55.22
1345.277,-55.07
1345.292,-55.41
1345.307,-55.51
1345.322,-55.17
1345.337,-55.32
1345.352,-55.64
1345.367,-55.48
1345.382,-55.54
1345.397,-55.84
1345.412,-55.65
1345.427,-55.47
1345.442,-55.7
1345.457,-55.83
1345.472,-55.62
1345.487,-55.61
1345.502,-55.78
1345.517,-55.7
1345.532,-55.52
1345.547,-55.6
1345.562,-55.77
1345.577,-55.5
1345.592,-55.43
1345.607,-55.68
1345.622,-55.45
1345.637,-55.31
1345.652,-55.54
1345.667,-55.7
1345.682,-55.4
1345.697,-55.46
1345.712,-55.72
1345.727,-55.56
1345.742,-55.3
1345.757,-55.54
1345.772,-55.65
1345.787,-55.29
1345.802,-55.4
1345.817,-55.54
1345.832,-55.23
1345.847,-55.15
1345.862,-55.43
1345.877,-55.32
1345.892,-55.2
1345.907,-55.51
1345.922,-55.49
1345.937,-55.23
1345.952,-55.36
1345.967,-55.64
1345.982,-55.34
1345.997,-55.17
1346.012,-55.42
1346.027,-55.43
1346.042,-55.27
1346.057,-55.22
1346.072,-55.46
1346.087,-55.32
1346.102,-55.12
1346.117,-55.29
1346.132,-55.38
1346.147,-55.14
1346.162,-55.06
1346.177,-55.36
1346.192,-55.25
1346.207,-55.18
1346.222,-55.3
1346.237,-55.19
1346.252,-55.13
1346.267,-55.29
1346.282,-55.35
1346.297,-55.11
1346.312,-55.16
1346.327,-55.37
1346.342,-55.23
1346.357,-55.01
1346.372,-55.24
1346.387,-55.22
1346.402,-55.02
1346.417,-54.96
1346.432,-55.22
1346.447,-55.1
1346.462,-54.89
1346.477,-55.05
1346.492,-55.02
1346.507,-55.02
1346.522,-55.09
1346.537,-55.05
1346.552,-55.09
1346.567,-55.09
1346.582,-55.06
1346.597,-55.06
1346.612,-55.02
1346.627,-55.28
1346.642,-55.23
1346.657,-55.04
1346.672,-55.09
1346.687,-55.29
1346.702,-55.12
1346.717,-54.94
1346.732,-55.15
1346.747,-55.3
1346.762,-55.0
1346.777,-55.07
1346.792,-55.27
1346.807,-55.29
1346.822,-55.02
1346.837,-55.24
1346.852,-55.45
1346.867,-55.33
1346.882,-55.26
1346.897,-55.59
1346.912,-55.24
1346.927,-55.37
1346.942,-55.58
1346.957,-55.36
1346.972,-55.18
1346.987,-55.46
1347.002,-55.46
1347.017,-55.24
1347.032,-55.41
1347.047,-55.53
1347.062,-55.33
1347.077,-55.16
1347.092,-55.44
1347.107,-55.52
1347.122,-55.28
1347.137,-55.29
1347.152,-55.55
1347.167,-55.51
1347.182,-55.32
1347.197,-55.58
1347.212,-55.47
1347.227,-55.32
1347.242,-55.47
1347.257,-55.62
1347.272,-55.39
1347.287,-55.36
1347.302,-55.59
1347.317,-55.53
1347.332,-55.34
1347.347,-55.51
1347.362,-55.54
1347.377,-55.28
1347.392,-55.43
1347.407,-55.53
1347.422,-55.41
1347.437,-55.2
1347.452,-55.39
1347.467,-55.53
1347.482,-55.3
1347.497,-55.43
1347.512,-55.61
1347.527,-55.32
1347.542,-55.32
1347.557,-55.54
1347.572,-55.44
1347.587,-55.25
1347.602,-55.44
1347.617,-55.63
1347.632,-55.29
1347.647,-55.48
1347.662,-55.6
1347.677,-55.46
1347.692,-55.27
1347.707,-55.56
1347.722,-55.58
1347.737,-55.34
1347.752,-55.31
1347.767,-55.62
1347.782,-55.36
1347.797,-55.26
1347.812,-55.47
1347.827,-55.66
1347.842,-55.44
1347.857,-55.36
1347.872,-55.29
1347.887,-55.33
1347.902,-55.19
1347.917,-55.31
1347.932,-55.16
1347.947,-55.05
1347.962,-55.3
1347.977,-55.3
1347.992,-54.99
1348.007,-55.21
1348.022,-55.4
1348.037,-55.19
1348.052,-55.05
1348.067,-55.38
1348.082,-55.45
1348.097,-55.39
1348.112,-55.42
1348.127,-55.4
1348.142,-55.42
1348.157,-55.44
1348.172,-55.39
1348.187,-55.37
1348.202,-55.35
1348.217,-55.37
1348.232,-55.31
1348.247,-55.31
1348.262,-55.32
1348.277,-55.33
1348.292,-55.34
1348.307,-55.29
1348.322,-55.09
1348.337,-55.16
1348.352,-55.21
1348.367,-55.28
1348.382,-55.29
1348.397,-55.26
1348.412,-55.32
1348.427,-55.37
1348.442,-55.49
1348.457,-55.47
1348.472,-55.44
1348.487,-55.39
1348.502,-55.5
1348.517,-55.46
1348.532,-55.41
1348.547,-55.42
1348.562,-55.35
1348.577,-55.15
1348.592,-55.32
1348.607,-55.47
1348.622,-55.1
1348.637,-55.17
1348.652,-55.14
1348.667,-55.21
1348.682,-55.16
1348.697,-55.27
1348.712,-55.22
1348.727,-55.27
1348.742,-55.28
1348.757,-55.3
1348.772,-55.32
1348.787,-55.38
1348.802,-55.32
1348.817,-55.22
1348.832,-55.2
1348.847,-55.16
1348.862,-55.31
1348.877,-55.36
1348.892,-55.31
1348.907,-55.27
1348.922,-55.33
1348.937,-55.3
1348.952,-55.28
1348.967,-55.35
1348.982,-55.4
1348.997,-55.46
1349.012,-55.39
1349.027,-55.44
1349.042,-55.4
1349.057,-55.43
1349.072,-55.42
1349.087,-55.48
1349.102,-55.27
1349.117,-55.12
1349.132,-55.43
1349.147,-55.38
1349.162,-55.3
1349.177,-55.34
1349.193,-55.31
1349.207,-55.25
1349.222,-55.26
1349.237,-55.31
1349.252,-55.3
1349.267,-55.24
1349.282,-55.35
1349.297,-55.34
1349.313,-55.23
1349.328,-55.54
1349.343,-55.52
1349.357,-55.29
1349.372,-55.18
1349.387,-55.44
1349.402,-55.32
1349.417,-55.06
1349.432,-55.16
1349.448,-55.24
1349.463,-55.14
1349.478,-55.21
1349.492,-55.25
1349.507,-55.12
1349.522,-55.15
1349.537,-55.25
1349.552,-55.22
1349.568,-55.14
1349.583,-55.4
1349.598,-55.39
1349.613,-55.16
1349.628,-55.39
1349.642,-55.65
1349.657,-55.49
1349.672,-55.23
1349.688,-55.53
1349.703,-55.41
1349.718,-55.3
1349.733,-55.37
1349.748,-55.33
1349.763,-55.29
1349.777,-55.22
1349.792,-55.25
1349.807,-55.26
1349.823,-55.26
1349.838,-55.33
1349.853,-55.41
1349.868,-55.18
1349.883,-55.24
1349.898,-55.53
1349.913,-55.42
1349.927,-55.5
1349.943,-55.5
1349.958,-55.49
1349.973,-55.4
1349.988,-55.38
1350.003,-55.36
1350.018,-55.36
1350.033,-55.31
1350.048,-55.33
1350.063,-55.31
1350.078,-55.26
1350.093,-55.32
1350.108,-55.32
1350.123,-55.31
1350.138,-55.23
1350.153,-55.36
1350.168,-55.25
1350.183,-55.3
1350.198,-55.34
1350.213,-55.36
1350.228,-55.42
1350.243,-55.44
1350.258,-55.42
1350.273,-55.45
1350.288,-55.51
1350.303,-55.46
1350.318,-55.48
1350.333,-55.34
1350.348,-55.46
1350.363,-55.46
1350.378,-55.47
1350.393,-55.28
1350.408,-55.21
1350.423,-55.43
1350.438,-55.51
1350.453,-55.25
1350.468,-55.31
1350.483,-55.37
1350.498,-55.41
1350.513,-55.42
1350.528,-55.3
1350.543,-55.32
1350.558,-55.37
1350.573,-55.41
1350.588,-55.41
1350.603,-55.45
1350.618,-55.36
1350.633,-55.23
1350.648,-55.0
1350.663,-55.01
1350.678,-55.27
1350.693,-55.15
1350.708,-55.14
1350.723,-55.17
1350.738,-55.18
1350.753,-55.12
1350.768,-55.21
1350.783,-55.31
1350.798,-55.26
1350.813,-55.28
1350.828,-55.36
1350.843,-55.32
1350.858,-55.16
1350.873,-55.22
1350.888,-55.4
1350.903,-55.13
1350.918,-55.16
1350.933,-55.07
1350.948,-54.92
1350.963,-55.13
1350.978,-55.27
1350.993,-55.09
1351.008,-55.08
1351.023,-55.25
1351.038,-55.27
1351.053,-55.18
1351.068,-55.22
1351.083,-55.39
1351.098,-55.24
1351.113,-55.16
1351.128,-55.36
1351.143,-55.45
1351.158,-55.25
1351.173,-55.24
1351.188,-55.23
1351.203,-55.32
1351.218,-55.35
1351.233,-55.2
1351.248,-55.07
1351.263,-55.07
1351.278,-55.16
1351.293,-55.08
1351.308,-54.96
1351.323,-55.07
1351.338,-55.18
1351.353,-55.02
1351.368,-55.08
1351.383,-55.17
1351.398,-55.34
1351.413,-55.37
1351.428,-55.28
1351.443,-55.28
1351.458,-55.48
1351.473,-55.4
1351.488,-55.21
1351.503,-55.3
1351.518,-55.31
1351.533,-55.48
1351.548,-55.36
1351.563,-55.23
1351.578,-55.32
1351.593,-55.38
1351.608,-55.21
1351.623,-55.23
1351.638,-55.45
1351.653,-55.59
1351.668,-55.5
1351.683,-55.45
1351.698,-55.49
1351.713,-55.44
1351.728,-55.65
1351.743,-55.61
1351.758,-55.53
1351.773,-55.54
1351.788,-55.56
1351.803,-55.42
1351.818,-55.38
1351.833,-55.4
1351.848,-55.44
1351.863,-55.45
1351.878,-55.43
1351.893,-55.4
1351.908,-55.25
1351.923,-55.4
1351.938,-55.48
1351.953,-55.54
1351.968,-55.52
1351.983,-55.49
1351.998,-55.57
1352.013,-55.55
1352.028,-55.51
1352.043,-55.51
1352.058,-55.49
1352.073,-55.5
1352.088,-55.49
1352.103,-55.29
1352.118,-55.35
1352.133,-55.47
1352.148,-55.22
1352.163,-55.14
1352.178,-55.32
1352.193,-55.36
1352.208,-55.15
1352.223,-55.11
1352.238,-55.28
1352.253,-55.31
1352.268,-55.3
1352.283,-55.51
1352.298,-55.27
1352.313,-55.31
1352.328,-55.44
1352.343,-55.37
1352.358,-55.26
1352.373,-55.27
1352.388,-55.48
1352.403,-55.16
1352.418,-55.07
1352.433,-55.29
1352.448,-55.22
1352.463,-55.09
1352.478,-55.33
1352.493,-55.33
1352.508,-55.05
1352.523,-55.19
1352.538,-55.27
1352.553,-55.02
1352.568,-55.13
1352.583,-55.35
1352.598,-55.17
1352.613,-55.06
1352.628,-55.29
1352.643,-55.38
1352.658,-55.16
1352.673,-55.2
1352.688,-55.36
1352.703,-55.04
1352.718,-55.14
1352.733,-55.27
1352.748,-54.98
1352.763,-54.97
1352.778,-55.2
1352.793,-55.12
1352.808,-54.94
1352.823,-55.05
1352.838,-55.29
1352.853,-55.02
1352.868,-54.98
1352.883,-55.18
1352.898,-55.15
1352.913,-55.23
1352.928,-55.48
1352.943,-55.19
1352.958,-55.12
1352.973,-55.29
1352.988,-55.31
1353.003,-55.02
1353.018,-55.07
1353.033,-55.33
1353.048,-55.14
1353.063,-54.99
1353.078,-55.18
1353.093,-55.17
1353.108,-55.1
1353.123,-55.18
1353.138,-55.1
1353.153,-54.91
1353.168,-55.14
1353.183,-55.33
1353.198,-55.1
1353.213,-55.04
1353.228,-55.35
1353.243,-55.31
1353.258,-55.07
1353.273,-55.17
1353.288,-55.14
1353.303,-55.1
1353.318,-55.08
1353.333,-55.11
1353.348,-55.1
1353.363,-55.09
1353.378,-55.31
1353.393,-55.1
1353.408,-55.04
1353.423,-55.29
1353.438,-55.41
1353.453,-55.17
1353.468,-55.21
1353.483,-55.19
1353.498,-55.21
1353.513,-55.21
1353.528,-55.22
1353.543,-55.24
1353.558,-55.24
1353.573,-55.26
1353.588,-55.17
1353.603,-55.01
1353.618,-55.14
1353.633,-55.23
1353.648,-55.0
1353.663,-54.94
1353.678,-55.12
1353.693,-55.06
1353.708,-55.08
1353.723,-55.1
1353.738,-55.09
1353.753,-55.0
1353.768,-55.2
1353.783,-55.28
1353.798,-55.1
1353.813,-55.15
1353.828,-55.39
1353.843,-55.2
1353.858,-55.11
1353.873,-55.23
1353.888,-55.33
1353.903,-55.07
1353.918,-55.03
1353.933,-55.01
1353.948,-54.9
1353.963,-55.08
1353.978,-55.16
1353.993,-54.85
1354.008,-54.9
1354.023,-55.09
1354.038,-54.92
1354.053,-54.85
1354.068,-54.97
1354.083,-55.14
1354.098,-54.92
1354.113,-54.95
1354.128,-55.1
1354.143,-54.96
1354.158,-55.07
1354.173,-55.25
1354.188,-54.99
1354.203,-54.85
1354.218,-55.12
1354.233,-55.01
1354.248,-54.8
1354.263,-54.89
1354.278,-55.15
1354.293,-55.02
1354.308,-54.9
1354.323,-55.16
1354.338,-54.95
1354.353,-54.81
1354.368,-55.1
1354.383,-54.98
1354.398,-54.82
1354.413,-55.01
1354.428,-55.15
1354.443,-54.88
1354.458,-54.93
1354.473,-55.01
1354.488,-55.0
1354.503,-54.81
1354.518,-55.05
1354.533,-55.05
1354.548,-54.76
1354.563,-54.89
1354.578,-55.08
1354.593,-54.86
1354.608,-54.93
1354.623,-55.11
1354.638,-54.95
1354.653,-54.86
1354.668,-54.98
1354.683,-55.14
1354.698,-54.97
1354.713,-55.2
1354.728,-55.31
1354.743,-55.04
1354.758,-55.14
1354.773,-55.31
1354.788,-55.04
1354.803,-54.96
1354.818,-55.15
1354.833,-55.12
1354.848,-54.94
1354.863,-55.04
1354.878,-55.01
1354.893,-54.81
1354.908,-55.0
1354.923,-55.21
1354.938,-54.94
1354.953,-54.97
1354.968,-55.15
1354.983,-54.97
1354.998,-54.97
1355.013,-55.02
1355.028,-55.07
1355.043,-54.95
1355.058,-55.0
1355.073,-55.01
1355.088,-54.74
1355.103,-54.83
1355.118,-55.01
1355.133,-54.81
1355.148,-54.77
1355.163,-54.99
1355.178,-54.83
1355.193,-54.69
1355.208,-54.89
1355.223,-54.93
1355.238,-54.8
1355.253,-55.06
1355.268,-55.17
1355.283,-54.93
1355.298,-54.85
1355.313,-55.19
1355.328,-54.97
1355.343,-55.04
1355.358,-55.23
1355.373,-55.12
1355.388,-54.94
1355.403,-55.05
1355.418,-55.11
1355.433,-54.91
1355.448,-55.06
1355.463,-55.15
1355.478,-55.05
1355.493,-54.91
1355.508,-55.24
1355.523,-55.09
1355.538,-54.96
1355.553,-55.16
1355.568,-55.19
1355.583,-54.96
1355.598,-54.97
1355.613,-55.27
1355.628,-55.04
1355.643,-55.06
1355.658,-55.34
1355.673,-55.23
1355.688,-54.98
1355.703,-55.18
1355.718,-55.03
1355.733,-54.89
1355.748,-54.98
1355.763,-55.24
1355.778,-54.94
1355.793,-54.86
1355.808,-55.1
1355.823,-54.9
1355.838,-54.83
1355.853,-55.08
1355.868,-55.06
1355.883,-55.01
1355.898,-55.27
1355.913,-55.31
1355.928,-55.06
1355.943,-55.06
1355.958,-55.4
1355.973,-55.21
1355.988,-55.05
1356.003,-55.22
1356.018,-55.14
1356.033,-54.98
1356.048,-55.19
1356.063,-55.14
1356.078,-55.06
1356.093,-55.25
1356.108,-55.3
1356.123,-55.08
1356.138,-55.05
1356.153,-55.32
1356.168,-55.27
1356.183,-55.23
1356.198,-55.53
1356.213,-55.49
1356.228,-55.21
1356.243,-55.42
1356.258,-55.29
1356.273,-55.06
1356.288,-55.14
1356.303,-55.4
1356.318,-55.15
1356.333,-55.07
1356.348,-55.24
1356.363,-55.28
1356.378,-55.23
1356.393,-55.49
1356.408,-55.46
1356.423,-55.3
1356.438,-55.48
1356.453,-55.43
1356.468,-55.24
1356.483,-55.32
1356.498,-55.6
1356.513,-55.36
1356.528,-55.25
1356.543,-55.47
1356.558,-55.31
1356.573,-55.19
1356.588,-55.35
1356.603,-55.52
1356.618,-55.16
1356.633,-55.35
1356.648,-55.46
1356.663,-55.11
1356.678,-55.17
1356.693,-55.37
1356.708,-55.29
1356.723,-55.17
1356.738,-55.25
1356.753,-55.28
1356.768,-54.98
1356.783,-55.22
1356.798,-55.39
1356.813,-55.1
1356.828,-55.28
1356.843,-55.47
1356.858,-55.19
1356.873,-55.11
1356.888,-55.31
1356.903,-55.3
1356.918,-55.01
1356.933,-55.25
1356.948,-55.29
1356.963,-55.01
1356.978,-55.07
1356.993,-55.32
1357.008,-55.1
1357.023,-55.17
1357.038,-55.43
1357.053,-55.24
1357.068,-55.16
1357.083,-55.4
1357.098,-55.54
1357.113,-55.34
1357.128,-55.6
1357.143,-55.71
1357.158,-55.46
1357.173,-55.42
1357.188,-55.57
1357.203,-55.3
1357.219,-55.26
1357.233,-55.46
1357.248,-55.52
1357.263,-55.3
1357.278,-55.4
1357.293,-55.67
1357.308,-55.32
1357.323,-55.45
1357.339,-55.68
1357.354,-55.48
1357.369,-55.47
1357.383,-55.69
1357.398,-55.45
1357.413,-55.31
1357.428,-55.55
1357.443,-55.64
1357.458,-55.4
1357.474,-55.35
1357.489,-55.48
1357.504,-55.16
1357.518,-55.2
1357.533,-55.4
1357.548,-55.3
1357.563,-55.26
1357.578,-55.45
1357.594,-55.42
1357.609,-55.18
1357.624,-55.39
1357.639,-55.55
1357.654,-55.22
1357.668,-55.42
1357.683,-55.57
1357.698,-55.38
1357.714,-55.26
1357.729,-55.53
1357.744,-55.52
1357.759,-55.34
1357.774,-55.61
1357.789,-55.58
1357.803,-55.31
1357.818,-55.6
1357.833,-55.7
1357.849,-55.34
1357.864,-55.45
1357.879,-55.71
1357.894,-55.55
1357.909,-55.37
1357.924,-55.67
1357.939,-55.55
1357.953,-55.46
1357.969,-55.79
1357.984,-55.6
1357.999,-55.42
1358.014,-55.65
1358.029,-55.84
1358.044,-55.54
1358.059,-55.54
1358.074,-55.83
1358.089,-55.66
1358.104,-55.38
1358.119,-55.6
1358.134,-55.23
1358.149,-55.23
1358.164,-55.51
1358.179,-55.49
1358.194,-55.25
1358.209,-55.45
1358.224,-55.66
1358.239,-55.53
1358.254,-55.34
1358.269,-55.62
1358.284,-55.5
1358.299,-55.35
1358.314,-55.65
1358.329,-55.46
1358.344,-55.27
1358.359,-55.51
1358.374,-55.56
1358.389,-55.16
1358.404,-55.12
1358.419,-55.42
1358.434,-55.37
1358.449,-55.35
1358.464,-55.27
1358.479,-55.32
1358.494,-55.3
1358.509,-55.61
1358.524,-55.51
1358.539,-55.35
1358.554,-55.45
1358.569,-55.64
1358.584,-55.46
1358.599,-55.64
1358.614,-55.62
1358.629,-55.54
1358.644,-55.5
1358.659,-55.63
1358.674,-55.47
1358.689,-55.31
1358.704,-55.45
1358.719,-55.51
1358.734,-55.29
1358.749,-55.35
1358.764,-55.38
1358.779,-55.31
1358.794,-55.27
1358.809,-55.38
1358.824,-55.2
1358.839,-55.15
1358.854,-55.48
1358.869,-55.36
1358.884,-55.15
1358.899,-55.34
1358.914,-55.29
1358.929,-55.23
1358.944,-55.28
1358.959,-55.29
1358.974,-55.1
1358.989,-55.29
1359.004,-55.41
1359.019,-55.19
1359.034,-55.01
1359.049,-55.23
1359.064,-55.16
1359.079,-55.15
1359.094,-55.23
1359.109,-55.23
1359.124,-55.04
1359.139,-55.36
1359.154,-55.44
1359.169,-55.18
1359.184,-55.22
1359.199,-55.5
1359.214,-55.29
1359.229,-55.28
1359.244,-55.36
1359.259,-55.32
1359.274,-55.14
1359.289,-55.42
1359.304,-55.26
1359.319,-55.09
1359.334,-55.29
1359.349,-55.38
1359.364,-55.14
1359.379,-55.22
1359.394,-55.33
1359.409,-55.3
1359.424,-55.3
1359.439,-55.39
1359.454,-55.14
1359.469,-55.21
1359.484,-55.48
1359.499,-55.43
1359.514,-55.12
1359.529,-55.32
1359.544,-55.26
1359.559,-55.12
1359.574,-55.19
1359.589,-55.3
1359.604,-54.92
1359.619,-55.05
1359.634,-55.36
1359.649,-55.1
1359.664,-55.02
1359.679,-55.26
1359.694,-55.27
1359.709,-55.26
1359.724,-55.43
1359.739,-55.45
1359.754,-55.27
1359.769,-55.62
1359.784,-55.6
1359.799,-55.43
1359.814,-55.49
1359.829,-55.75
1359.844,-55.61
1359.859,-55.53
1359.874,-55.57
1359.889,-55.55
1359.904,-55.43
1359.919,-55.76
1359.934,-55.65
1359.949,-55.33
1359.964,-55.56
1359.979,-55.57
1359.994,-55.38
1360.009,-55.47
1360.024,-55.42
1360.039,-55.48
1360.054,-55.53
1360.069,-55.73
1360.084,-55.5
1360.099,-55.39
1360.114,-55.69
1360.129,-55.71
1360.144,-55.43
1360.159,-55.39
1360.174,-55.33
1360.189,-55.29
1360.204,-55.29
1360.219,-55.32
1360.234,-55.09
1360.249,-55.08
1360.264,-55.19
1360.279,-55.09
1360.294,-54.94
1360.309,-55.21
1360.324,-55.22
1360.339,-55.15
1360.354,-55.17
1360.369,-55.2
1360.384,-55.07
1360.399,-55.3
1360.414,-55.35
1360.429,-55.11
1360.444,-55.05
1360.459,-55.22
1360.474,-55.13
1360.489,-55.14
1360.504,-55.06
1360.519,-55.11
1360.534,-55.03
1360.549,-55.26
1360.564,-55.21
1360.579,-55.04
1360.594,-55.19
1360.609,-55.31
1360.624,-55.32
1360.639,-55.27
1360.654,-55.23
1360.669,-55.31
1360.684,-55.37
1360.699,-55.35
1360.714,-55.23
1360.729,-55.11
1360.744,-55.26
1360.759,-55.27
1360.774,-55.26
1360.789,-55.25
1360.804,-55.24
1360.819,-55.28
1360.834,-55.25
1360.849,-55.19
1360.864,-55.13
1360.879,-55.23
1360.894,-55.2
1360.909,-55.25
1360.924,-55.24
1360.939,-55.22
1360.954,-55.31
1360.969,-55.33
1360.984,-55.36
1360.999,-55.38
1361.014,-55.15
1361.029,-55.27
1361.044,-55.26
1361.059,-55.24
1361.074,-55.17
1361.089,-55.09
1361.104,-55.17
1361.119,-55.11
1361.134,-55.11
1361.149,-55.11
1361.164,-55.19
1361.179,-55.17
1361.194,-55.24
1361.209,-55.25
1361.224,-55.22
1361.239,-55.25
1361.254,-55.35
1361.269,-55.44
1361.284,-55.43
1361.299,-55.65
1361.314,-55.47
1361.329,-55.34
1361.344,-55.33
1361.359,-55.35
1361.374,-55.36
1361.389,-55.32
1361.404,-55.28
1361.419,-55.28
1361.434,-55.44
1361.449,-55.57
1361.464,-55.33
1361.479,-55.36
1361.494,-55.31
1361.509,-55.37
1361.524,-55.42
1361.539,-55.44
1361.554,-55.48
1361.569,-55.42
1361.584,-55.71
1361.599,-55.52
1361.614,-55.42
1361.629,-55.4
1361.644,-55.36
1361.659,-55.35
1361.674,-55.31
1361.689,-55.16
1361.704,-55.08
1361.719,-55.26
1361.734,-55.39
1361.749,-55.18
1361.764,-55.28
1361.779,-55.19
1361.794,-55.2
1361.809,-55.15
1361.824,-55.24
1361.839,-54.98
1361.854,-55.1
1361.869,-55.2
1361.884,-55.06
1361.899,-55.06
1361.914,-55.15
1361.929,-55.07
1361.944,-54.98
1361.959,-55.01
1361.974,-54.92
1361.989,-54.74
1362.004,-54.88
1362.019,-55.04
1362.034,-54.86
1362.049,-54.91
1362.064,-54.94
1362.079,-54.91
1362.094,-54.96
1362.109,-55.18
1362.124,-54.91
1362.139,-54.87
1362.154,-55.17
1362.169,-54.97
1362.184,-54.93
1362.199,-55.08
1362.214,-55.1
1362.229,-54.96
1362.244,-55.24
1362.259,-55.19
1362.274,-54.93
1362.289,-55.04
1362.304,-55.13
1362.319,-54.97
1362.334,-55.05
1362.349,-55.19
1362.364,-55.14
1362.379,-55.11
1362.394,-55.47
1362.409,-55.22
1362.424,-55.11
1362.439,-55.25
1362.454,-55.08
1362.469,-55.04
1362.484,-55.22
1362.499,-55.26
1362.514,-55.07
1362.529,-55.23
1362.544,-55.32
1362.559,-54.96
1362.574,-55.07
1362.589,-55.08
1362.604,-55.01
1362.619,-54.96
1362.634,-55.08
1362.649,-55.07
1362.664,-55.05
1362.679,-55.37
1362.694,-55.25
1362.709,-55.3
1362.724,-55.4
1362.739,-55.28
1362.754,-55.21
1362.769,-55.28
1362.784,-55.31
1362.799,-55.05
1362.814,-55.2
1362.829,-55.2
1362.844,-55.14
1362.859,-55.11
1362.874,-55.19
1362.889,-55.12
1362.904,-55.14
1362.919,-55.21
1362.934,-55.03
1362.949,-55.02
1362.964,-55.27
1362.979,-55.26
1362.994,-55.32
1363.009,-55.33
1363.024,-55.39
1363.039,-55.47
1363.054,-55.49
1363.069,-55.6
1363.084,-55.32
1363.099,-55.46
1363.114,-55.45
1363.129,-55.45
1363.144,-55.39
1363.159,-55.29
1363.174,-55.4
1363.189,-55.42
1363.204,-55.66
1363.219,-55.4
1363.234,-55.42
1363.249,-55.43
1363.264,-55.44
1363.279,-55.41
1363.294,-55.45
1363.309,-55.41
1363.324,-55.39
1363.339,-55.59
1363.354,-55.66
1363.369,-55.37
1363.384,-55.39
1363.399,-55.36
1363.414,-55.38
1363.429,-55.3
1363.444,-55.23
1363.459,-55.34
1363.474,-55.38
1363.489,-55.46
1363.504,-55.29
1363.519,-55.3
1363.534,-55.27
1363.549,-55.32
1363.564,-55.36
1363.579,-55.37
1363.594,-55.36
1363.609,-55.22
1363.624,-55.33
1363.639,-55.48
1363.654,-55.28
1363.669,-55.23
1363.684,-55.15
1363.699,-55.24
1363.714,-55.14
1363.729,-55.02
1363.744,-54.89
1363.759,-54.91
1363.774,-55.03
1363.789,-54.96
1363.804,-54.92
1363.819,-54.98
1363.834,-55.09
1363.849,-55.1
1363.864,-55.2
1363.879,-55.23
1363.894,-55.14
1363.909,-55.12
1363.924,-55.17
1363.939,-55.34
1363.954,-55.31
1363.969,-55.13
1363.984,-55.28
1363.999,-55.34
1364.014,-55.38
1364.029,-55.38
1364.044,-55.18
1364.059,-55.25
1364.074,-55.23
1364.089,-55.33
1364.104,-55.29
1364.119,-55.18
1364.134,-55.32
1364.149,-55.38
1364.164,-55.57
1364.179,-55.39
1364.194,-55.4
1364.209,-55.23
1364.224,-55.38
1364.239,-55.44
1364.254,-55.27
1364.269,-55.2
1364.284,-55.13
1364.299,-55.22
1364.314,-55.18
1364.329,-55.15
1364.344,-55.02
1364.359,-54.93
1364.374,-55.14
1364.389,-55.12
1364.404,-54.94
1364.419,-54.92
1364.434,-54.99
1364.449,-55.12
1364.464,-55.17
1364.479,-55.15
1364.494,-55.01
1364.509,-55.08
1364.524,-55.21
1364.539,-55.09
1364.554,-55.14
1364.569,-55.06
1364.584,-55.11
1364.599,-55.1
1364.614,-55.15
1364.629,-55.14
1364.644,-54.9
1364.659,-55.1
1364.674,-55.16
1364.689,-55.2
1364.704,-55.09
1364.719,-55.09
1364.734,-55.15
1364.749,-55.41
1364.764,-55.47
1364.779,-55.32
1364.794,-55.36
1364.809,-55.4
1364.824,-55.45
1364.839,-55.43
1364.854,-55.36
1364.869,-55.31
1364.884,-55.23
1364.899,-55.27
1364.914,-55.31
1364.929,-55.52
1364.944,-55.33
1364.959,-55.29
1364.974,-55.48
1364.989,-55.37
1365.004,-55.24
1365.019,-55.25
1365.034,-55.02
1365.049,-54.99
1365.064,-55.24
1365.079,-55.26
1365.094,-55.1
1365.109,-55.17
1365.124,-55.3
1365.139,-55.17
1365.154,-55.24
1365.169,-55.23
1365.184,-55.09
1365.199,-55.19
1365.214,-55.36
1365.229,-55.15
1365.245,-55.12
1365.259,-55.23
1365.274,-55.05
1365.289,-55.16
1365.304,-55.32
1365.319,-55.21
1365.334,-55.08
1365.349,-55.23
1365.365,-55.41
1365.38,-55.18
1365.395,-55.41
1365.409,-55.5
1365.424,-55.32
1365.439,-55.43
1365.454,-55.54
1365.469,-55.19
1365.484,-55.11
1365.5,-55.29
1365.515,-55.1
1365.53,-55.03
1365.544,-55.35
1365.559,-55.06
1365.574,-54.99
1365.589,-55.19
1365.604,-55.21
1365.62,-55.02
1365.635,-55.35
1365.65,-55.46
1365.665,-55.16
1365.68,-55.26
1365.694,-55.3
1365.709,-55.07
1365.724,-55.16
1365.74,-55.44
1365.755,-55.06
1365.77,-55.08
1365.785,-55.27
1365.8,-55.02
1365.815,-55.01
1365.83,-55.29
1365.844,-55.07
1365.859,-54.98
1365.875,-55.26
1365.89,-55.13
1365.905,-55.01
1365.92,-55.26
1365.935,-55.13
1365.95,-54.99
1365.965,-55.09
1365.979,-55.01
1365.995,-54.9
1366.01,-55.09
1366.025,-55.14
1366.04,-54.99
1366.055,-55.13
1366.07,-55.17
1366.085,-54.87
1366.1,-55.04
1366.115,-55.14
1366.13,-54.94
1366.145,-54.87
1366.16,-55.05
1366.175,-54.83
1366.19,-54.76
1366.205,-54.9
1366.22,-54.7
1366.235,-54.65
1366.25,-54.95
1366.265,-54.84
1366.28,-54.87
1366.295,-54.97
1366.31,-55.01
1366.325,-54.82
1366.34,-55.08
1366.355,-55.04
1366.37,-54.75
1366.385,-54.92
1366.4,-54.87
1366.415,-54.71
1366.43,-54.73
1366.445,-54.96
1366.46,-54.71
1366.475,-54.8
1366.49,-54.99
1366.505,-54.84
1366.52,-54.89
1366.535,-55.17
1366.55,-54.96
1366.565,-54.95
1366.58,-55.19
1366.595,-55.1
1366.61,-54.87
1366.625,-55.12
1366.64,-54.97
1366.655,-54.8
1366.67,-54.92
1366.685,-55.12
1366.7,-54.83
1366.715,-55.15
1366.73,-55.19
1366.745,-54.88
1366.76,-54.98
1366.775,-55.14
1366.79,-54.96
1366.805,-54.93
1366.82,-55.1
1366.835,-54.83
1366.85,-54.87
1366.865,-55.12
1366.88,-54.9
1366.895,-54.84
1366.91,-55.11
1366.925,-55.04
1366.94,-54.92
1366.955,-55.12
1366.97,-55.03
1366.985,-55.05
1367.0,-55.22
1367.015,-55.14
1367.03,-54.99
1367.045,-55.07
1367.06,-55.1
1367.075,-54.89
1367.09,-55.14
1367.105,-55.1
1367.12,-54.95
1367.135,-55.02
1367.15,-55.25
1367.165,-55.13
1367.18,-55.2
1367.195,-55.44
1367.21,-55.2
1367.225,-55.3
1367.24,-55.6
1367.255,-55.26
1367.27,-55.16
1367.285,-55.31
1367.3,-55.2
1367.315,-55.04
1367.33,-55.28
1367.345,-55.09
1367.36,-55.01
1367.375,-55.18
1367.39,-55.25
1367.405,-55.04
1367.42,-55.31
1367.435,-55.5
1367.45,-55.18
1367.465,-55.37
1367.48,-55.54
1367.495,-55.32
1367.51,-55.28
1367.525,-55.49
1367.54,-55.1
1367.555,-55.1
1367.57,-55.32
1367.585,-55.17
1367.6,-55.15
1367.615,-55.37
1367.63,-55.43
1367.645,-55.23
1367.66,-55.54
1367.675,-55.54
1367.69,-55.19
1367.705,-55.48
1367.72,-55.43
1367.735,-55.28
1367.75,-55.55
1367.765,-55.59
1367.78,-55.31
1367.795,-55.44
1367.81,-55.67
1367.825,-55.5
1367.84,-55.54
1367.855,-55.56
1367.87,-55.26
1367.885,-55.33
1367.9,-55.59
1367.915,-55.25
1367.93,-55.15
1367.945,-55.3
1367.96,-55.03
1367.975,-55.11
1367.99,-55.31
1368.005,-55.1
1368.02,-54.96
1368.035,-55.18
1368.05,-55.27
1368.065,-55.31
1368.08,-55.57
1368.095,-55.34
1368.11,-55.22
1368.125,-55.49
1368.14,-55.52
1368.155,-55.25
1368.17,-55.22
1368.185,-55.14
1368.2,-54.97
1368.215,-55.24
1368.23,-55.31
1368.245,-55.05
1368.26,-55.06
1368.275,-55.34
1368.29,-55.18
1368.305,-55.4
1368.32,-55.53
1368.335,-55.31
1368.35,-55.27
1368.365,-55.57
1368.38,-55.55
1368.395,-55.42
1368.41,-55.64
1368.425,-55.27
1368.44,-55.19
1368.455,-55.47
1368.47,-55.31
1368.485,-55.04
1368.5,-55.14
1368.515,-55.19
1368.53,-55.05
1368.545,-55.34
1368.56,-55.4
1368.575,-55.16
1368.59,-55.2
1368.605,-55.44
1368.62,-55.25
1368.635,-55.29
1368.65,-55.41
1368.665,-55.13
1368.68,-55.22
1368.695,-55.51
1368.71,-55.32
1368.725,-55.05
1368.74,-55.24
1368.755,-54.95
1368.77,-54.99
1368.785,-55.27
1368.8,-55.15
1368.815,-54.95
1368.83,-55.06
1368.845,-55.22
1368.86,-55.19
1368.875,-55.45
1368.89,-55.38
1368.905,-55.18
1368.92,-55.45
1368.935,-55.57
1368.95,-55.39
1368.965,-55.52
1368.98,-55.48
1368.995,-55.22
1369.01,-55.44
1369.025,-55.69
1369.04,-55.33
1369.055,-55.31
1369.07,-55.48
1369.085,-55.27
1369.1,-55.39
1369.115,-55.6
1369.13,-55.29
1369.145,-55.24
1369.16,-55.54
1369.175,-55.45
1369.19,-55.4
1369.205,-55.51
1369.22,-55.26
1369.235,-55.15
1369.25,-55.41
1369.265,-55.42
1369.28,-55.12
1369.295,-55.26
1369.31,-55.28
1369.325,-55.05
1369.34,-55.28
1369.355,-55.37
1369.37,-55.08
1369.385,-55.16
1369.4,-55.29
1369.415,-55.0
1369.43,-55.04
1369.445,-55.21
1369.46,-54.94
1369.475,-55.04
1369.49,-55.35
1369.505,-55.15
1369.52,-55.15
1369.535,-55.43
1369.55,-55.28
1369.565,-55.21
1369.58,-55.4
1369.595,-55.26
1369.61,-55.0
1369.625,-55.28
1369.64,-55.08
1369.655,-54.97
1369.67,-55.24
1369.685,-55.06
1369.7,-54.88
1369.715,-55.02
1369.73,-55.26
1369.745,-54.99
1369.76,-55.11
1369.775,-55.12
1369.79,-54.88
1369.805,-55.02
1369.82,-55.16
1369.835,-55.0
1369.85,-54.95
1369.865,-55.13
1369.88,-54.9
1369.895,-55.0
1369.91,-55.17
1369.925,-54.95
1369.94,-54.87
1369.955,-55.07
1369.97,-54.95
1369.985,-54.88
1370.0,-55.13
