wavelength_axis,light_level
1250.0,-58.68
1250.015,-58.49
1250.03,-58.98
1250.045,-58.69
1250.06,-58.66
1250.075,-58.18
1250.09,-58.4
1250.105,-58.63
1250.12,-58.56
1250.135,-58.41
1250.15,-58.2
1250.165,-58.2
1250.18,-58.22
1250.195,-58.66
1250.21,-58.3
1250.225,-58.1
1250.24,-57.74
1250.255,-58.06
1250.27,-58.11
1250.285,-58.41
1250.3,-57.87
1250.315,-57.92
1250.33,-58.03
1250.345,-58.44
1250.36,-58.53
1250.375,-58.1
1250.39,-58.06
1250.405,-57.96
1250.42,-58.45
1250.435,-58.46
1250.45,-58.49
1250.465,-58.02
1250.48,-58.23
1250.495,-58.41
1250.51,-58.88
1250.525,-58.49
1250.54,-58.51
1250.555,-57.89
1250.57,-58.1
1250.585,-58.38
1250.6,-58.41
1250.615,-58.29
1250.63,-58.1
1250.645,-58.11
1250.66,-58.14
1250.675,-58.5
1250.69,-58.17
1250.705,-58.06
1250.72,-57.78
1250.735,-58.2
1250.75,-58.19
1250.765,-58.16
1250.78,-57.95
1250.795,-57.78
1250.81,-57.89
1250.825,-58.37
1250.84,-58.29
1250.855,-57.92
1250.87,-57.8
1250.885,-57.77
1250.9,-58.3
1250.915,-58.38
1250.93,-58.49
1250.945,-57.96
1250.96,-58.17
1250.975,-58.2
1250.99,-58.79
1251.005,-58.31
1251.02,-58.37
1251.035,-58.0
1251.05,-58.36
1251.065,-58.58
1251.08,-58.65
1251.095,-58.31
1251.11,-58.0
1251.125,-58.47
1251.14,-58.5
1251.155,-58.84
1251.17,-58.49
1251.185,-58.31
1251.2,-58.03
1251.215,-58.38
1251.23,-58.42
1251.245,-58.36
1251.26,-57.9
1251.275,-57.85
1251.29,-57.89
1251.305,-58.31
1251.32,-58.36
1251.335,-58.03
1251.35,-57.87
1251.365,-58.01
1251.38,-58.44
1251.395,-58.18
1251.41,-58.09
1251.425,-57.67
1251.44,-58.04
1251.455,-58.15
1251.47,-58.55
1251.485,-58.21
1251.5,-57.89
1251.515,-57.84
1251.53,-58.25
1251.545,-58.35
1251.56,-58.42
1251.575,-58.16
1251.59,-57.94
1251.605,-58.43
1251.62,-58.41
1251.635,-58.71
1251.65,-58.16
1251.665,-58.15
1251.68,-58.19
1251.695,-58.51
1251.71,-58.32
1251.725,-58.43
1251.74,-58.17
1251.755,-58.26
1251.77,-58.68
1251.785,-58.56
1251.8,-58.78
1251.815,-58.47
1251.83,-58.39
1251.845,-58.53
1251.86,-59.03
1251.875,-58.75
1251.89,-58.69
1251.905,-58.56
1251.92,-58.86
1251.935,-59.0
1251.95,-58.93
1251.965,-58.78
1251.98,-58.68
1251.995,-58.58
1252.01,-58.76
1252.025,-58.66
1252.04,-58.7
1252.055,-58.55
1252.07,-58.72
1252.085,-58.61
1252.1,-58.79
1252.115,-58.91
1252.13,-58.85
1252.145,-58.9
1252.16,-59.16
1252.175,-58.96
1252.19,-58.89
1252.205,-58.85
1252.22,-58.81
1252.235,-58.95
1252.25,-58.97
1252.265,-58.99
1252.28,-59.1
1252.295,-59.22
1252.31,-58.88
1252.325,-58.93
1252.34,-58.91
1252.355,-58.77
1252.37,-58.62
1252.385,-58.73
1252.4,-58.66
1252.415,-58.59
1252.43,-58.7
1252.445,-58.47
1252.46,-58.74
1252.475,-58.42
1252.49,-58.53
1252.505,-58.63
1252.52,-58.58
1252.535,-58.62
1252.55,-58.58
1252.565,-58.51
1252.58,-58.61
1252.595,-58.96
1252.61,-58.66
1252.625,-58.92
1252.64,-58.45
1252.655,-58.73
1252.67,-58.66
1252.685,-58.87
1252.7,-58.51
1252.715,-58.78
1252.73,-58.69
1252.745,-58.7
1252.76,-59.0
1252.775,-58.77
1252.79,-59.04
1252.805,-58.74
1252.82,-59.02
1252.835,-58.73
1252.85,-59.02
1252.865,-58.52
1252.88,-58.56
1252.895,-58.52
1252.91,-58.64
1252.925,-58.43
1252.94,-58.32
1252.955,-58.25
1252.97,-58.33
1252.985,-58.77
1253.0,-58.69
1253.015,-58.61
1253.03,-58.61
1253.045,-58.86
1253.06,-58.85
1253.075,-58.9
1253.09,-58.87
1253.105,-58.65
1253.12,-58.78
1253.135,-58.7
1253.15,-59.05
1253.165,-58.8
1253.18,-58.77
1253.195,-58.87
1253.21,-59.48
1253.225,-59.48
1253.24,-59.06
1253.255,-58.82
1253.271,-59.34
1253.285,-59.65
1253.3,-59.66
1253.315,-59.38
1253.33,-59.08
1253.345,-59.16
1253.36,-59.65
1253.375,-59.92
1253.391,-59.7
1253.406,-59.37
1253.421,-59.45
1253.435,-60.27
1253.45,-60.8
1253.465,-60.16
1253.48,-59.97
1253.495,-60.23
1253.51,-60.54
1253.526,-61.14
1253.541,-60.5
1253.556,-59.89
1253.571,-59.74
1253.585,-60.05
1253.6,-60.2
1253.615,-59.64
1253.63,-59.32
1253.646,-59.37
1253.661,-59.64
1253.676,-60.09
1253.691,-60.02
1253.706,-59.58
1253.72,-59.21
1253.735,-59.31
1253.75,-59.86
1253.766,-59.62
1253.781,-59.05
1253.796,-58.77
1253.811,-59.16
1253.826,-59.49
1253.841,-59.34
1253.856,-58.96
1253.87,-58.78
1253.885,-58.89
1253.901,-59.08
1253.916,-59.1
1253.931,-58.86
1253.946,-58.41
1253.961,-58.52
1253.976,-58.7
1253.991,-58.75
1254.005,-58.28
1254.021,-58.18
1254.036,-58.22
1254.051,-58.41
1254.066,-58.85
1254.081,-58.81
1254.096,-58.48
1254.111,-58.61
1254.126,-59.27
1254.141,-59.45
1254.156,-59.11
1254.171,-58.68
1254.186,-58.6
1254.201,-58.68
1254.216,-58.72
1254.231,-58.29
1254.246,-58.3
1254.261,-58.45
1254.276,-58.47
1254.291,-58.77
1254.306,-58.6
1254.321,-58.58
1254.336,-58.45
1254.351,-58.82
1254.366,-58.79
1254.381,-59.05
1254.396,-58.65
1254.411,-58.62
1254.426,-58.79
1254.441,-58.84
1254.456,-58.58
1254.471,-58.62
1254.486,-58.52
1254.501,-58.41
1254.516,-58.86
1254.531,-58.6
1254.546,-58.45
1254.561,-58.36
1254.576,-58.65
1254.591,-58.55
1254.606,-58.57
1254.621,-58.77
1254.636,-58.68
1254.651,-58.69
1254.666,-58.75
1254.681,-58.92
1254.696,-58.86
1254.711,-58.76
1254.726,-58.84
1254.741,-59.37
1254.756,-59.32
1254.771,-59.2
1254.786,-59.2
1254.801,-59.4
1254.816,-59.42
1254.831,-59.27
1254.846,-59.46
1254.861,-59.04
1254.876,-59.17
1254.891,-58.88
1254.906,-59.38
1254.921,-59.17
1254.936,-59.48
1254.951,-59.41
1254.966,-59.79
1254.981,-59.69
1254.996,-59.67
1255.011,-59.63
1255.026,-59.4
1255.041,-59.38
1255.056,-59.34
1255.071,-59.45
1255.086,-58.81
1255.101,-59.03
1255.116,-58.94
1255.131,-58.86
1255.146,-58.8
1255.161,-58.94
1255.176,-58.85
1255.191,-58.89
1255.206,-58.79
1255.221,-58.72
1255.236,-59.02
1255.251,-58.69
1255.266,-58.81
1255.281,-58.68
1255.296,-58.66
1255.311,-58.35
1255.326,-58.5
1255.341,-58.58
1255.356,-58.62
1255.371,-58.69
1255.386,-58.56
1255.401,-58.54
1255.416,-58.51
1255.431,-58.88
1255.446,-58.52
1255.461,-58.68
1255.476,-58.36
1255.491,-58.5
1255.506,-58.5
1255.521,-58.33
1255.536,-58.24
1255.551,-58.5
1255.566,-58.48
1255.581,-58.27
1255.596,-58.77
1255.611,-58.6
1255.626,-58.72
1255.641,-58.45
1255.656,-58.75
1255.671,-58.63
1255.686,-58.74
1255.701,-58.32
1255.716,-58.34
1255.731,-58.38
1255.746,-58.24
1255.761,-58.3
1255.776,-58.09
1255.791,-58.27
1255.806,-58.11
1255.821,-58.34
1255.836,-58.36
1255.851,-58.34
1255.866,-58.46
1255.881,-58.46
1255.896,-58.96
1255.911,-58.75
1255.926,-58.93
1255.941,-58.46
1255.956,-58.52
1255.971,-58.31
1255.986,-58.78
1256.001,-58.48
1256.016,-58.28
1256.031,-58.33
1256.046,-58.67
1256.061,-59.09
1256.076,-58.64
1256.091,-58.85
1256.106,-58.39
1256.121,-58.92
1256.136,-59.12
1256.151,-59.1
1256.166,-58.58
1256.181,-58.44
1256.196,-58.75
1256.211,-59.1
1256.226,-59.24
1256.241,-58.72
1256.256,-58.77
1256.271,-58.83
1256.286,-59.49
1256.301,-59.38
1256.316,-59.03
1256.331,-58.72
1256.346,-58.86
1256.361,-59.19
1256.376,-58.98
1256.391,-58.88
1256.406,-58.59
1256.421,-58.73
1256.436,-59.01
1256.451,-59.37
1256.466,-58.84
1256.481,-58.63
1256.496,-58.87
1256.511,-59.07
1256.526,-59.25
1256.541,-58.93
1256.556,-58.44
1256.571,-58.42
1256.586,-58.98
1256.601,-58.77
1256.616,-58.46
1256.631,-58.11
1256.646,-58.28
1256.661,-58.6
1256.676,-58.64
1256.691,-58.55
1256.706,-58.3
1256.721,-58.46
1256.736,-58.49
1256.751,-58.91
1256.766,-58.38
1256.781,-58.32
1256.796,-58.07
1256.811,-58.61
1256.826,-58.42
1256.841,-58.06
1256.856,-57.69
1256.871,-57.71
1256.886,-58.17
1256.901,-57.95
1256.916,-57.96
1256.931,-57.5
1256.946,-57.7
1256.961,-58.05
1256.976,-58.55
1256.991,-58.1
1257.006,-57.92
1257.021,-57.94
1257.036,-58.23
1257.051,-58.61
1257.066,-58.13
1257.081,-58.1
1257.096,-57.81
1257.111,-58.3
1257.126,-58.3
1257.141,-58.21
1257.156,-57.75
1257.171,-57.75
1257.186,-58.29
1257.201,-58.42
1257.216,-58.37
1257.231,-57.85
1257.246,-57.89
1257.261,-57.93
1257.276,-58.37
1257.291,-58.09
1257.306,-57.93
1257.321,-57.86
1257.336,-57.95
1257.351,-58.43
1257.366,-58.39
1257.381,-58.33
1257.396,-57.88
1257.411,-58.09
1257.426,-58.31
1257.441,-58.33
1257.456,-57.89
1257.471,-57.81
1257.486,-58.01
1257.501,-58.1
1257.516,-58.19
1257.531,-57.79
1257.546,-57.7
1257.561,-57.67
1257.576,-58.2
1257.591,-58.03
1257.606,-58.05
1257.621,-57.93
1257.636,-58.01
1257.651,-58.52
1257.666,-58.39
1257.681,-58.44
1257.696,-58.22
1257.711,-58.45
1257.726,-58.35
1257.741,-58.86
1257.756,-58.34
1257.771,-58.37
1257.786,-58.21
1257.801,-58.75
1257.816,-58.48
1257.831,-58.3
1257.846,-58.23
1257.861,-58.37
1257.876,-58.83
1257.891,-58.4
1257.906,-58.31
1257.921,-58.08
1257.936,-58.44
1257.951,-58.72
1257.966,-58.68
1257.981,-58.08
1257.996,-58.04
1258.011,-58.35
1258.026,-58.54
1258.041,-58.75
1258.056,-58.25
1258.071,-58.26
1258.086,-58.19
1258.101,-58.63
1258.116,-58.54
1258.131,-58.31
1258.146,-57.9
1258.161,-58.04
1258.176,-58.52
1258.191,-58.23
1258.206,-58.06
1258.221,-57.77
1258.236,-57.98
1258.251,-58.36
1258.266,-58.88
1258.281,-58.56
1258.296,-58.27
1258.311,-58.34
1258.326,-58.61
1258.341,-59.0
1258.356,-58.51
1258.371,-58.17
1258.386,-57.95
1258.401,-58.28
1258.416,-58.51
1258.431,-58.28
1258.446,-57.93
1258.461,-57.85
1258.476,-58.17
1258.491,-58.38
1258.506,-58.49
1258.521,-57.91
1258.536,-58.19
1258.551,-58.56
1258.566,-59.22
1258.581,-58.56
1258.596,-58.33
1258.611,-58.18
1258.626,-58.31
1258.641,-58.91
1258.656,-58.35
1258.671,-58.0
1258.686,-57.8
1258.701,-58.1
1258.716,-58.2
1258.731,-58.01
1258.746,-57.7
1258.761,-57.57
1258.776,-57.86
1258.791,-58.25
1258.806,-58.11
1258.821,-57.72
1258.836,-57.78
1258.851,-58.32
1258.866,-58.71
1258.881,-58.39
1258.896,-58.08
1258.911,-58.15
1258.926,-58.39
1258.941,-58.63
1258.956,-58.19
1258.971,-57.79
1258.986,-57.78
1259.001,-58.05
1259.016,-58.25
1259.031,-58.03
1259.046,-57.75
1259.061,-57.68
1259.076,-57.91
1259.091,-58.22
1259.106,-58.24
1259.121,-57.94
1259.136,-57.95
1259.151,-58.42
1259.166,-58.77
1259.181,-58.52
1259.196,-58.34
1259.211,-58.14
1259.226,-58.23
1259.241,-58.64
1259.256,-58.28
1259.271,-57.81
1259.286,-57.57
1259.301,-57.85
1259.316,-58.03
1259.331,-57.86
1259.346,-57.58
1259.361,-57.51
1259.376,-57.7
1259.391,-58.05
1259.406,-58.35
1259.421,-57.82
1259.436,-57.76
1259.451,-58.09
1259.466,-58.46
1259.481,-58.43
1259.496,-58.1
1259.511,-57.73
1259.526,-58.08
1259.541,-58.38
1259.556,-58.22
1259.571,-57.71
1259.586,-57.67
1259.601,-57.87
1259.616,-58.19
1259.631,-58.3
1259.646,-57.81
1259.661,-57.81
1259.676,-58.01
1259.691,-58.52
1259.706,-58.63
1259.721,-58.12
1259.736,-58.23
1259.751,-58.55
1259.766,-58.84
1259.781,-58.88
1259.796,-58.56
1259.811,-58.21
1259.826,-58.36
1259.841,-58.85
1259.856,-58.54
1259.871,-58.06
1259.886,-57.86
1259.901,-58.15
1259.916,-58.61
1259.931,-58.57
1259.946,-58.31
1259.961,-58.31
1259.976,-58.52
1259.991,-58.99
1260.006,-59.42
1260.021,-58.73
1260.036,-58.65
1260.051,-58.89
1260.066,-59.3
1260.081,-59.34
1260.096,-58.88
1260.111,-58.53
1260.126,-58.62
1260.141,-58.9
1260.156,-58.68
1260.171,-58.29
1260.186,-57.93
1260.201,-58.03
1260.216,-58.26
1260.231,-58.34
1260.246,-58.13
1260.261,-57.91
1260.276,-58.24
1260.291,-58.62
1260.306,-59.06
1260.321,-58.48
1260.336,-58.43
1260.351,-58.68
1260.366,-58.96
1260.381,-59.18
1260.396,-58.71
1260.411,-58.24
1260.426,-58.16
1260.441,-58.6
1260.456,-58.49
1260.471,-58.14
1260.486,-57.67
1260.501,-57.88
1260.516,-58.33
1260.531,-58.33
1260.546,-58.06
1260.561,-57.72
1260.576,-57.94
1260.591,-58.37
1260.606,-58.69
1260.621,-58.19
1260.636,-58.0
1260.651,-58.2
1260.666,-58.48
1260.681,-58.79
1260.696,-58.29
1260.711,-57.86
1260.726,-58.23
1260.741,-58.54
1260.756,-58.28
1260.771,-58.08
1260.786,-57.99
1260.801,-57.99
1260.816,-58.44
1260.831,-58.47
1260.846,-58.07
1260.861,-57.73
1260.876,-58.05
1260.891,-58.48
1260.906,-58.45
1260.921,-57.92
1260.936,-57.79
1260.951,-57.99
1260.966,-58.18
1260.981,-57.98
1260.996,-57.69
1261.011,-57.32
1261.026,-57.6
1261.041,-57.74
1261.056,-57.75
1261.071,-57.53
1261.086,-57.35
1261.101,-57.67
1261.116,-57.95
1261.131,-57.93
1261.146,-57.67
1261.161,-57.76
1261.176,-58.03
1261.191,-58.52
1261.206,-58.38
1261.221,-58.14
1261.236,-58.41
1261.251,-58.34
1261.266,-58.74
1261.281,-58.31
1261.297,-58.14
1261.312,-57.84
1261.326,-58.17
1261.341,-58.32
1261.356,-58.0
1261.371,-57.82
1261.386,-57.6
1261.401,-57.98
1261.417,-57.99
1261.432,-58.01
1261.447,-57.84
1261.461,-57.7
1261.476,-58.04
1261.491,-58.08
1261.506,-58.18
1261.521,-57.69
1261.536,-57.83
1261.552,-57.93
1261.567,-58.4
1261.582,-58.21
1261.597,-57.94
1261.611,-57.97
1261.626,-58.16
1261.641,-58.36
1261.656,-58.06
1261.672,-58.01
1261.687,-57.56
1261.702,-57.95
1261.717,-58.12
1261.732,-57.71
1261.746,-57.38
1261.761,-57.29
1261.776,-57.75
1261.792,-57.53
1261.807,-57.63
1261.822,-57.27
1261.837,-57.37
1261.852,-57.8
1261.867,-58.27
1261.882,-58.08
1261.896,-57.63
1261.911,-57.97
1261.927,-58.18
1261.942,-58.62
1261.957,-58.26
1261.972,-58.01
1261.987,-58.05
1262.002,-58.45
1262.017,-58.55
1262.031,-58.14
1262.047,-57.95
1262.062,-57.82
1262.077,-58.23
1262.092,-58.16
1262.107,-57.94
1262.122,-57.55
1262.137,-57.54
1262.152,-58.02
1262.167,-58.3
1262.182,-58.05
1262.197,-57.55
1262.212,-57.87
1262.227,-58.09
1262.242,-58.23
1262.257,-57.93
1262.272,-57.74
1262.287,-57.87
1262.302,-58.2
1262.317,-58.39
1262.332,-57.95
1262.347,-57.63
1262.362,-57.74
1262.377,-58.18
1262.392,-58.1
1262.407,-57.93
1262.422,-57.66
1262.437,-57.8
1262.452,-58.28
1262.467,-58.58
1262.482,-58.15
1262.497,-58.17
1262.512,-58.42
1262.527,-58.69
1262.542,-59.03
1262.557,-58.7
1262.572,-58.27
1262.587,-58.09
1262.602,-58.47
1262.617,-58.32
1262.632,-57.95
1262.647,-57.86
1262.662,-57.98
1262.677,-58.26
1262.692,-58.32
1262.707,-57.91
1262.722,-57.71
1262.737,-57.89
1262.752,-58.45
1262.767,-58.4
1262.782,-58.07
1262.797,-57.94
1262.812,-58.17
1262.827,-58.33
1262.842,-58.24
1262.857,-57.74
1262.872,-57.46
1262.887,-57.76
1262.902,-57.94
1262.917,-57.82
1262.932,-57.51
1262.947,-57.28
1262.962,-57.6
1262.977,-57.74
1262.992,-57.93
1263.007,-57.48
1263.022,-57.58
1263.037,-57.6
1263.052,-58.12
1263.067,-58.14
1263.082,-57.68
1263.097,-57.93
1263.112,-58.0
1263.127,-58.38
1263.142,-58.32
1263.157,-58.14
1263.172,-57.58
1263.187,-57.8
1263.202,-58.15
1263.217,-57.74
1263.232,-57.6
1263.247,-57.26
1263.262,-57.67
1263.277,-57.62
1263.292,-57.83
1263.307,-57.36
1263.322,-57.23
1263.337,-57.42
1263.352,-57.46
1263.367,-57.49
1263.382,-57.21
1263.397,-57.56
1263.412,-57.51
1263.427,-57.86
1263.442,-57.86
1263.457,-57.64
1263.472,-57.74
1263.487,-57.94
1263.502,-58.01
1263.517,-57.73
1263.532,-57.74
1263.547,-57.35
1263.562,-57.62
1263.577,-57.54
1263.592,-57.76
1263.607,-57.85
1263.622,-57.75
1263.637,-57.98
1263.652,-57.79
1263.667,-57.94
1263.682,-57.73
1263.697,-58.01
1263.712,-58.0
1263.727,-57.93
1263.742,-57.89
1263.757,-57.66
1263.772,-57.93
1263.787,-57.75
1263.802,-57.95
1263.817,-57.69
1263.832,-57.85
1263.847,-58.03
1263.862,-57.98
1263.877,-58.08
1263.892,-57.77
1263.907,-58.03
1263.922,-57.86
1263.937,-58.19
1263.952,-57.98
1263.967,-57.75
1263.982,-57.91
1263.997,-57.92
1264.012,-58.0
1264.027,-57.85
1264.042,-58.25
1264.057,-58.03
1264.072,-58.21
1264.087,-58.26
1264.102,-58.02
1264.117,-58.27
1264.132,-58.22
1264.147,-58.43
1264.162,-58.22
1264.177,-58.55
1264.192,-58.27
1264.207,-58.33
1264.222,-58.43
1264.237,-58.5
1264.252,-58.52
1264.267,-58.33
1264.282,-58.54
1264.297,-58.11
1264.312,-58.33
1264.327,-58.34
1264.342,-58.44
1264.357,-58.68
1264.372,-58.54
1264.387,-58.7
1264.402,-58.36
1264.417,-58.61
1264.432,-58.28
1264.447,-58.47
1264.462,-58.45
1264.477,-58.23
1264.492,-58.2
1264.507,-58.35
1264.522,-58.47
1264.537,-58.3
1264.552,-58.68
1264.567,-58.62
1264.582,-58.73
1264.597,-58.64
1264.612,-58.33
1264.627,-58.5
1264.642,-58.35
1264.657,-58.77
1264.672,-58.54
1264.687,-58.45
1264.702,-58.0
1264.717,-58.29
1264.732,-58.52
1264.747,-58.57
1264.762,-58.39
1264.777,-58.18
1264.792,-58.7
1264.807,-58.69
1264.822,-58.67
1264.837,-58.4
1264.852,-58.31
1264.867,-58.84
1264.882,-58.74
1264.897,-58.89
1264.912,-58.49
1264.927,-58.73
1264.942,-58.57
1264.957,-59.08
1264.972,-59.06
1264.987,-58.81
1265.002,-58.77
1265.017,-59.16
1265.032,-59.27
1265.047,-58.86
1265.062,-58.92
1265.077,-58.76
1265.092,-59.18
1265.107,-59.17
1265.122,-58.86
1265.137,-58.82
1265.152,-58.62
1265.167,-59.12
1265.182,-58.89
1265.197,-58.96
1265.212,-58.48
1265.227,-58.66
1265.242,-58.85
1265.257,-58.84
1265.272,-58.77
1265.287,-58.27
1265.302,-58.71
1265.317,-58.82
1265.332,-58.81
1265.347,-58.35
1265.362,-58.19
1265.377,-58.77
1265.392,-58.75
1265.407,-58.96
1265.422,-58.34
1265.437,-58.61
1265.452,-58.66
1265.467,-59.05
1265.482,-58.87
1265.497,-58.49
1265.512,-58.47
1265.527,-58.48
1265.542,-58.79
1265.557,-58.51
1265.572,-58.22
1265.587,-58.3
1265.602,-58.58
1265.617,-58.79
1265.632,-58.34
1265.647,-58.52
1265.662,-58.16
1265.677,-58.63
1265.692,-58.56
1265.707,-58.53
1265.722,-58.21
1265.737,-58.35
1265.752,-58.73
1265.767,-58.57
1265.782,-58.7
1265.797,-58.17
1265.812,-58.39
1265.827,-58.74
1265.842,-58.65
1265.857,-58.52
1265.872,-58.01
1265.887,-58.49
1265.902,-58.46
1265.917,-58.66
1265.932,-58.3
1265.947,-58.21
1265.962,-58.29
1265.977,-58.67
1265.992,-58.64
1266.007,-58.29
1266.022,-58.09
1266.037,-58.34
1266.052,-58.74
1266.067,-58.39
1266.082,-58.13
1266.097,-58.08
1266.112,-58.42
1266.127,-58.8
1266.142,-58.39
1266.157,-58.4
1266.172,-58.0
1266.187,-58.36
1266.202,-58.34
1266.217,-58.32
1266.232,-58.09
1266.247,-57.98
1266.262,-58.27
1266.277,-58.23
1266.292,-58.28
1266.307,-57.99
1266.322,-57.96
1266.337,-58.39
1266.352,-58.4
1266.367,-58.42
1266.382,-57.97
1266.397,-58.33
1266.412,-58.4
1266.427,-58.94
1266.442,-58.57
1266.457,-58.42
1266.472,-58.48
1266.487,-58.54
1266.502,-58.86
1266.517,-58.47
1266.532,-58.48
1266.547,-58.62
1266.562,-58.93
1266.577,-58.71
1266.592,-58.39
1266.607,-58.26
1266.622,-58.39
1266.637,-58.88
1266.652,-58.52
1266.667,-58.49
1266.682,-58.48
1266.697,-58.64
1266.712,-58.91
1266.727,-58.88
1266.742,-58.83
1266.757,-58.79
1266.772,-59.34
1266.787,-59.26
1266.802,-59.25
1266.817,-59.11
1266.832,-58.72
1266.847,-59.29
1266.862,-59.14
1266.877,-59.17
1266.892,-59.14
1266.907,-59.12
1266.922,-59.22
1266.937,-59.19
1266.952,-59.24
1266.967,-58.82
1266.982,-58.88
1266.997,-58.84
1267.012,-58.73
1267.027,-58.86
1267.042,-58.61
1267.057,-58.6
1267.072,-58.72
1267.087,-58.71
1267.102,-58.41
1267.117,-58.28
1267.132,-58.14
1267.147,-58.15
1267.162,-58.07
1267.177,-58.12
1267.192,-57.99
1267.207,-58.02
1267.222,-57.94
1267.237,-58.13
1267.252,-58.01
1267.267,-58.17
1267.282,-57.99
1267.297,-57.97
1267.312,-58.02
1267.327,-58.17
1267.342,-58.04
1267.357,-57.94
1267.372,-58.01
1267.387,-58.02
1267.402,-57.99
1267.417,-57.99
1267.432,-57.67
1267.447,-57.7
1267.462,-57.78
1267.477,-57.75
1267.492,-57.69
1267.507,-57.39
1267.522,-57.38
1267.537,-57.37
1267.552,-57.43
1267.567,-57.09
1267.582,-57.26
1267.597,-57.16
1267.612,-57.26
1267.627,-57.36
1267.642,-57.01
1267.657,-57.0
1267.672,-57.06
1267.687,-57.08
1267.702,-57.01
1267.717,-57.06
1267.732,-57.11
1267.747,-57.1
1267.762,-57.17
1267.777,-56.86
1267.792,-56.93
1267.807,-56.96
1267.822,-56.93
1267.837,-57.31
1267.852,-56.89
1267.867,-56.87
1267.882,-57.02
1267.897,-56.97
1267.912,-57.1
1267.927,-57.16
1267.942,-57.2
1267.957,-57.09
1267.972,-57.43
1267.987,-57.23
1268.002,-57.28
1268.017,-57.39
1268.032,-57.28
1268.047,-57.59
1268.062,-57.42
1268.077,-57.43
1268.092,-57.32
1268.107,-57.49
1268.122,-57.69
1268.137,-57.64
1268.152,-57.65
1268.167,-57.52
1268.182,-57.75
1268.197,-57.64
1268.212,-57.77
1268.227,-57.88
1268.242,-57.67
1268.257,-58.09
1268.272,-57.95
1268.287,-58.1
1268.302,-58.05
1268.317,-58.21
1268.332,-58.2
1268.347,-58.27
1268.362,-58.43
1268.377,-58.22
1268.392,-58.58
1268.407,-58.4
1268.422,-58.44
1268.437,-58.32
1268.452,-58.2
1268.467,-58.4
1268.482,-58.16
1268.497,-58.34
1268.512,-58.16
1268.527,-58.25
1268.542,-58.31
1268.557,-58.13
1268.572,-58.34
1268.587,-58.07
1268.602,-58.39
1268.617,-58.3
1268.632,-58.35
1268.647,-58.4
1268.662,-58.36
1268.677,-58.49
1268.692,-58.45
1268.707,-58.64
1268.722,-58.24
1268.737,-58.15
1268.752,-58.19
1268.767,-58.05
1268.782,-58.31
1268.797,-57.88
1268.812,-58.0
1268.827,-57.96
1268.842,-57.87
1268.857,-58.06
1268.872,-57.85
1268.887,-57.83
1268.902,-57.75
1268.917,-57.82
1268.932,-57.48
1268.947,-57.47
1268.962,-57.52
1268.977,-57.4
1268.992,-57.73
1269.007,-57.37
1269.022,-57.52
1269.037,-57.48
1269.052,-57.4
1269.067,-57.48
1269.082,-57.14
1269.097,-57.32
1269.112,-57.2
1269.127,-57.27
1269.142,-57.15
1269.157,-57.28
1269.172,-57.25
1269.188,-57.21
1269.202,-57.49
1269.217,-57.11
1269.232,-57.16
1269.247,-57.21
1269.262,-57.19
1269.277,-57.27
1269.292,-57.3
1269.307,-57.31
1269.323,-57.29
1269.338,-57.51
1269.352,-57.43
1269.367,-57.4
1269.382,-57.37
1269.397,-57.36
1269.412,-57.61
1269.427,-57.5
1269.443,-57.56
1269.458,-57.58
1269.473,-57.6
1269.487,-57.9
1269.502,-57.76
1269.517,-57.85
1269.532,-57.84
1269.547,-58.15
1269.563,-58.16
1269.578,-58.24
1269.593,-58.24
1269.608,-58.1
1269.623,-58.63
1269.637,-58.53
1269.652,-58.67
1269.667,-58.62
1269.682,-58.72
1269.698,-59.07
1269.713,-59.09
1269.728,-58.98
1269.743,-58.8
1269.758,-59.24
1269.772,-59.15
1269.787,-59.03
1269.802,-59.01
1269.818,-58.92
1269.833,-59.54
1269.848,-59.46
1269.863,-59.35
1269.878,-59.43
1269.893,-59.73
1269.908,-59.7
1269.922,-59.8
1269.938,-59.82
1269.953,-59.59
1269.968,-60.01
1269.983,-60.02
1269.998,-59.91
1270.013,-59.74
1270.028,-59.5
1270.043,-59.61
1270.058,-59.84
1270.073,-59.56
1270.088,-59.54
1270.103,-59.63
1270.118,-60.03
1270.133,-60.22
1270.148,-59.89
1270.163,-59.3
1270.178,-59.42
1270.193,-59.76
1270.208,-59.84
1270.223,-59.73
1270.238,-59.33
1270.253,-59.44
1270.268,-59.9
1270.283,-59.81
1270.298,-59.01
1270.313,-59.08
1270.328,-59.18
1270.343,-59.51
1270.358,-59.33
1270.373,-58.82
1270.388,-58.87
1270.403,-59.01
1270.418,-59.18
1270.433,-58.73
1270.448,-58.4
1270.463,-58.43
1270.478,-58.65
1270.493,-58.65
1270.508,-58.21
1270.523,-58.08
1270.538,-58.14
1270.553,-58.32
1270.568,-58.3
1270.583,-57.76
1270.598,-57.66
1270.613,-57.85
1270.628,-57.93
1270.643,-57.75
1270.658,-57.54
1270.673,-57.49
1270.688,-57.72
1270.703,-57.79
1270.718,-57.29
1270.733,-57.08
1270.748,-57.19
1270.763,-57.39
1270.778,-57.51
1270.793,-57.43
1270.808,-57.34
1270.823,-57.52
1270.838,-57.58
1270.853,-57.42
1270.868,-57.19
1270.883,-57.16
1270.898,-57.25
1270.913,-57.56
1270.928,-57.21
1270.943,-57.1
1270.958,-57.2
1270.973,-57.35
1270.988,-57.55
1271.003,-57.35
1271.018,-57.27
1271.033,-57.36
1271.048,-57.85
1271.063,-57.6
1271.078,-57.46
1271.093,-57.48
1271.108,-57.6
1271.123,-57.91
1271.138,-57.81
1271.153,-57.65
1271.168,-57.59
1271.183,-57.96
1271.198,-58.05
1271.213,-57.81
1271.228,-57.61
1271.243,-57.87
1271.258,-58.36
1271.273,-58.37
1271.288,-58.11
1271.303,-58.19
1271.318,-58.3
1271.333,-58.84
1271.348,-58.78
1271.363,-58.35
1271.378,-58.29
1271.393,-58.73
1271.408,-58.75
1271.423,-58.61
1271.438,-58.56
1271.453,-58.63
1271.468,-59.25
1271.483,-59.38
1271.498,-59.14
1271.513,-58.96
1271.528,-59.14
1271.543,-59.9
1271.558,-60.04
1271.573,-59.73
1271.588,-59.9
1271.603,-60.53
1271.618,-61.02
1271.633,-60.8
1271.648,-60.36
1271.663,-60.31
1271.678,-60.84
1271.693,-60.43
1271.708,-59.75
1271.723,-59.49
1271.738,-60.09
1271.753,-61.08
1271.768,-60.93
1271.783,-60.4
1271.798,-59.8
1271.813,-60.6
1271.828,-61.05
1271.843,-60.87
1271.858,-60.41
1271.873,-60.3
1271.888,-61.11
1271.903,-60.83
1271.918,-60.59
1271.933,-60.62
1271.948,-60.89
1271.963,-61.65
1271.978,-60.74
1271.993,-60.46
1272.008,-59.91
1272.023,-60.62
1272.038,-60.85
1272.053,-59.61
1272.068,-59.64
1272.083,-59.82
1272.098,-60.37
1272.113,-59.97
1272.128,-59.46
1272.143,-58.89
1272.158,-59.08
1272.173,-59.77
1272.188,-59.23
1272.203,-59.07
1272.218,-58.73
1272.233,-59.25
1272.248,-59.47
1272.263,-58.98
1272.278,-58.58
1272.293,-58.49
1272.308,-59.01
1272.323,-58.89
1272.338,-58.39
1272.353,-58.18
1272.368,-58.22
1272.383,-58.85
1272.398,-58.52
1272.413,-58.43
1272.428,-58.02
1272.443,-58.24
1272.458,-58.61
1272.473,-58.12
1272.488,-57.96
1272.503,-57.69
1272.518,-58.02
1272.533,-58.2
1272.548,-57.84
1272.563,-57.57
1272.578,-57.46
1272.593,-57.8
1272.608,-57.58
1272.623,-57.28
1272.638,-57.29
1272.653,-57.43
1272.668,-57.6
1272.683,-57.22
1272.698,-57.2
1272.713,-57.47
1272.728,-57.94
1272.743,-57.92
1272.758,-57.52
1272.773,-57.32
1272.788,-57.68
1272.803,-58.13
1272.818,-57.9
1272.833,-57.6
1272.848,-57.47
1272.863,-57.89
1272.878,-58.35
1272.893,-57.84
1272.908,-57.8
1272.923,-57.94
1272.938,-58.08
1272.953,-58.3
1272.968,-57.78
1272.983,-57.78
1272.998,-58.08
1273.013,-58.33
1273.028,-58.29
1273.043,-57.85
1273.058,-58.19
1273.073,-58.58
1273.088,-58.86
1273.103,-58.52
1273.118,-58.44
1273.133,-58.66
1273.148,-59.25
1273.163,-59.67
1273.178,-59.17
1273.193,-59.15
1273.208,-59.34
1273.223,-59.72
1273.238,-60.0
1273.253,-59.32
1273.268,-59.44
1273.283,-59.83
1273.298,-59.98
1273.313,-59.61
1273.328,-59.31
1273.343,-59.75
1273.358,-59.93
1273.373,-59.93
1273.388,-59.58
1273.403,-59.41
1273.418,-59.58
1273.433,-60.37
1273.448,-60.01
1273.463,-59.55
1273.478,-59.63
1273.493,-59.86
1273.508,-60.32
1273.523,-59.81
1273.538,-59.46
1273.553,-59.45
1273.568,-59.86
1273.583,-60.19
1273.598,-59.5
1273.613,-59.28
1273.628,-59.65
1273.643,-59.89
1273.658,-59.7
1273.673,-59.15
1273.688,-59.11
1273.703,-59.46
1273.718,-59.67
1273.733,-59.09
1273.748,-58.91
1273.763,-59.01
1273.778,-59.35
1273.793,-59.28
1273.808,-58.7
1273.823,-58.44
1273.838,-58.4
1273.853,-58.7
1273.868,-58.55
1273.883,-58.02
1273.898,-58.05
1273.913,-58.11
1273.928,-58.25
1273.943,-58.05
1273.958,-57.61
1273.973,-57.53
1273.988,-57.77
1274.003,-57.84
1274.018,-57.59
1274.033,-57.29
1274.048,-57.34
1274.063,-57.52
1274.078,-57.6
1274.093,-57.15
1274.108,-57.04
1274.123,-57.08
1274.138,-57.38
1274.153,-57.26
1274.168,-56.84
1274.183,-56.87
1274.198,-56.94
1274.213,-57.17
1274.228,-57.06
1274.243,-56.69
1274.258,-56.87
1274.273,-56.92
1274.288,-56.97
1274.303,-56.85
1274.318,-56.64
1274.333,-57.0
1274.348,-57.03
1274.363,-56.89
1274.378,-56.79
1274.393,-56.61
1274.408,-56.67
1274.423,-56.97
1274.438,-56.72
1274.453,-56.66
1274.468,-56.71
1274.483,-56.76
1274.498,-56.89
1274.513,-56.7
1274.528,-56.63
1274.543,-56.82
1274.558,-56.98
1274.573,-57.0
1274.588,-56.68
1274.603,-56.71
1274.618,-57.02
1274.633,-57.18
1274.648,-57.05
1274.663,-56.91
1274.678,-56.96
1274.693,-57.3
1274.708,-57.5
1274.723,-57.28
1274.738,-57.25
1274.753,-57.31
1274.768,-57.66
1274.783,-57.81
1274.798,-57.51
1274.813,-57.42
1274.828,-57.57
1274.843,-58.08
1274.858,-58.15
1274.873,-57.84
1274.888,-57.71
1274.903,-57.98
1274.918,-58.32
1274.933,-58.2
1274.948,-57.93
1274.963,-58.07
1274.978,-58.71
1274.993,-58.71
1275.008,-58.47
1275.023,-58.34
1275.038,-58.53
1275.053,-59.08
1275.068,-59.32
1275.083,-58.89
1275.098,-58.91
1275.113,-59.27
1275.128,-59.93
1275.143,-59.78
1275.158,-59.28
1275.173,-59.41
1275.188,-59.55
1275.203,-59.9
1275.218,-59.8
1275.233,-59.34
1275.248,-59.64
1275.263,-60.07
1275.278,-60.18
1275.293,-59.85
1275.308,-59.49
1275.323,-60.0
1275.338,-60.33
1275.353,-59.98
1275.368,-59.79
1275.383,-59.61
1275.398,-60.12
1275.413,-60.76
1275.428,-60.01
1275.443,-60.05
1275.458,-59.92
1275.473,-60.24
1275.488,-60.67
1275.503,-59.9
1275.518,-59.66
1275.533,-59.84
1275.548,-60.12
1275.563,-60.03
1275.578,-59.24
1275.593,-59.24
1275.608,-59.55
1275.623,-59.67
1275.638,-59.57
1275.653,-59.19
1275.668,-58.99
1275.683,-59.47
1275.698,-59.55
1275.713,-58.88
1275.728,-58.66
1275.743,-58.95
1275.758,-59.26
1275.773,-59.04
1275.788,-58.55
1275.803,-58.36
1275.818,-58.45
1275.833,-58.97
1275.848,-58.51
1275.863,-57.98
1275.878,-57.87
1275.893,-58.2
1275.908,-58.41
1275.923,-58.1
1275.938,-57.67
1275.953,-57.75
1275.968,-58.1
1275.983,-58.01
1275.998,-57.74
1276.013,-57.54
1276.028,-57.57
1276.043,-57.91
1276.058,-57.81
1276.073,-57.41
1276.088,-57.37
1276.103,-57.45
1276.118,-57.61
1276.133,-57.29
1276.148,-57.02
1276.163,-57.19
1276.178,-57.29
1276.193,-57.44
1276.208,-57.22
1276.223,-56.84
1276.238,-57.22
1276.253,-57.4
1276.268,-57.18
1276.283,-56.92
1276.298,-56.95
1276.313,-57.4
1276.328,-57.57
1276.343,-57.11
1276.358,-57.05
1276.373,-57.18
1276.388,-57.47
1276.403,-57.7
1276.418,-57.21
1276.433,-57.22
1276.448,-57.4
1276.463,-57.88
1276.478,-57.82
1276.493,-57.38
1276.508,-57.53
1276.523,-57.79
1276.538,-58.21
1276.553,-57.75
1276.568,-57.67
1276.583,-58.22
1276.598,-58.38
1276.613,-58.24
1276.628,-57.88
1276.643,-57.82
1276.658,-58.17
1276.673,-58.3
1276.688,-58.18
1276.703,-57.72
1276.718,-58.12
1276.733,-58.38
1276.748,-58.2
1276.763,-57.96
1276.778,-57.68
1276.793,-57.91
1276.808,-58.04
1276.823,-58.04
1276.838,-57.66
1276.853,-57.73
1276.868,-58.2
1276.883,-58.34
1276.898,-58.19
1276.913,-57.88
1276.928,-58.23
1276.943,-58.57
1276.958,-58.73
1276.973,-58.49
1276.988,-58.32
1277.003,-58.81
1277.018,-59.14
1277.033,-59.17
1277.048,-58.75
1277.063,-58.94
1277.078,-59.05
1277.093,-59.32
1277.108,-59.12
1277.123,-58.8
1277.138,-59.19
1277.153,-59.12
1277.168,-58.75
1277.183,-58.72
1277.198,-58.5
1277.214,-58.88
1277.228,-58.9
1277.243,-58.65
1277.258,-58.3
1277.273,-58.39
1277.288,-58.78
1277.303,-58.58
1277.318,-58.33
1277.333,-58.02
1277.349,-58.36
1277.364,-58.5
1277.378,-58.06
1277.393,-58.04
1277.408,-57.66
1277.423,-58.11
1277.438,-58.2
1277.453,-57.77
1277.469,-57.64
1277.484,-57.65
1277.499,-58.1
1277.514,-57.96
1277.528,-57.68
1277.543,-57.6
1277.558,-57.78
1277.573,-58.01
1277.589,-57.5
1277.604,-57.42
1277.619,-57.87
1277.634,-57.81
1277.649,-57.93
1277.663,-57.42
1277.678,-57.78
1277.693,-57.71
1277.708,-57.7
1277.724,-57.74
1277.739,-57.47
1277.754,-57.78
1277.769,-57.75
1277.784,-57.8
1277.799,-57.83
1277.813,-57.79
1277.828,-58.32
1277.844,-58.17
1277.859,-58.17
1277.874,-58.19
1277.889,-58.18
1277.904,-58.61
1277.919,-58.41
1277.934,-58.16
1277.948,-58.18
1277.964,-58.51
1277.979,-58.71
1277.994,-58.45
1278.009,-58.28
1278.024,-58.34
1278.039,-58.33
1278.054,-58.53
1278.069,-58.02
1278.084,-58.21
1278.099,-58.13
1278.114,-58.16
1278.129,-58.22
1278.144,-57.81
1278.159,-58.11
1278.174,-58.33
1278.189,-58.24
1278.204,-58.02
1278.219,-57.7
1278.234,-58.14
1278.249,-58.19
1278.264,-58.33
1278.279,-57.96
1278.294,-57.89
1278.309,-58.16
1278.324,-58.07
1278.339,-57.97
1278.354,-57.94
1278.369,-57.88
1278.384,-58.4
1278.399,-58.2
1278.414,-58.11
1278.429,-58.07
1278.444,-58.22
1278.459,-58.54
1278.474,-58.26
1278.489,-57.97
1278.504,-57.96
1278.519,-58.24
1278.534,-58.61
1278.549,-58.22
1278.564,-58.21
1278.579,-58.36
1278.594,-58.38
1278.609,-58.49
1278.624,-57.98
1278.639,-58.21
1278.654,-58.57
1278.669,-58.61
1278.684,-58.11
1278.699,-57.95
1278.714,-58.43
1278.729,-58.31
1278.744,-58.26
1278.759,-57.9
1278.774,-57.88
1278.789,-58.46
1278.804,-58.35
1278.819,-58.05
1278.834,-57.61
1278.849,-57.73
1278.864,-58.22
1278.879,-57.76
1278.894,-57.64
1278.909,-57.64
1278.924,-57.86
1278.939,-58.11
1278.954,-57.77
1278.969,-57.51
1278.984,-57.67
1278.999,-58.02
1279.014,-57.98
1279.029,-57.5
1279.044,-57.68
1279.059,-57.79
1279.074,-58.2
1279.089,-57.89
1279.104,-57.56
1279.119,-57.89
1279.134,-58.07
1279.149,-58.09
1279.164,-57.71
1279.179,-57.68
1279.194,-58.21
1279.209,-58.28
1279.224,-58.25
1279.239,-57.83
1279.254,-57.81
1279.269,-58.24
1279.284,-58.23
1279.299,-58.16
1279.314,-57.89
1279.329,-58.12
1279.344,-58.49
1279.359,-57.97
1279.374,-57.89
1279.389,-57.48
1279.404,-57.84
1279.419,-58.22
1279.434,-57.82
1279.449,-57.67
1279.464,-57.82
1279.479,-58.25
1279.494,-58.29
1279.509,-57.95
1279.524,-57.83
1279.539,-57.79
1279.554,-58.28
1279.569,-58.08
1279.584,-57.78
1279.599,-58.2
1279.614,-58.3
1279.629,-58.64
1279.644,-58.45
1279.659,-57.94
1279.674,-58.37
1279.689,-58.34
1279.704,-58.62
1279.719,-58.21
1279.734,-58.24
1279.749,-58.69
1279.764,-58.8
1279.779,-58.76
1279.794,-58.36
1279.809,-58.41
1279.824,-58.89
1279.839,-58.74
1279.854,-58.79
1279.869,-58.28
1279.884,-58.57
1279.899,-58.83
1279.914,-58.3
1279.929,-58.43
1279.944,-58.15
1279.959,-58.63
1279.974,-58.66
1279.989,-58.1
1280.004,-57.94
1280.019,-58.3
1280.034,-58.69
1280.049,-58.41
1280.064,-58.25
1280.079,-58.23
1280.094,-58.54
1280.109,-59.08
1280.124,-58.61
1280.139,-58.34
1280.154,-58.77
1280.169,-58.94
1280.184,-59.17
1280.199,-58.44
1280.214,-58.55
1280.229,-59.17
1280.244,-59.2
1280.259,-59.24
1280.274,-58.55
1280.289,-58.74
1280.304,-59.09
1280.319,-59.06
1280.334,-58.7
1280.349,-58.33
1280.364,-58.83
1280.379,-59.05
1280.394,-59.12
1280.409,-58.86
1280.424,-58.63
1280.439,-59.26
1280.454,-59.41
1280.469,-58.91
1280.484,-58.44
1280.499,-58.57
1280.514,-59.1
1280.529,-58.96
1280.544,-58.81
1280.559,-58.61
1280.574,-58.85
1280.589,-59.24
1280.604,-58.72
1280.619,-58.43
1280.634,-58.5
1280.649,-58.64
1280.664,-58.98
1280.679,-58.32
1280.694,-58.46
1280.709,-58.76
1280.724,-58.8
1280.739,-58.87
1280.754,-58.34
1280.769,-58.48
1280.784,-58.79
1280.799,-58.68
1280.814,-58.42
1280.829,-58.05
1280.844,-58.61
1280.859,-58.59
1280.874,-58.48
1280.889,-58.68
1280.904,-58.58
1280.919,-59.2
1280.934,-58.75
1280.949,-58.69
1280.964,-58.69
1280.979,-58.68
1280.994,-59.0
1281.009,-58.82
1281.024,-58.5
1281.039,-58.6
1281.054,-58.86
1281.069,-58.92
1281.084,-58.44
1281.099,-58.52
1281.114,-58.38
1281.129,-58.86
1281.144,-58.86
1281.159,-58.35
1281.174,-58.65
1281.189,-58.58
1281.204,-58.52
1281.219,-58.37
1281.234,-57.99
1281.249,-58.34
1281.264,-58.37
1281.279,-58.37
1281.294,-58.24
1281.309,-57.96
1281.324,-58.39
1281.339,-58.36
1281.354,-58.37
1281.369,-58.09
1281.384,-58.15
1281.399,-58.64
1281.414,-58.45
1281.429,-58.39
1281.444,-58.46
1281.459,-58.49
1281.474,-58.88
1281.489,-58.68
1281.504,-58.74
1281.519,-58.86
1281.534,-59.19
1281.549,-59.36
1281.564,-58.97
1281.579,-58.98
1281.594,-59.08
1281.609,-58.77
1281.624,-58.97
1281.639,-58.57
1281.654,-58.71
1281.669,-58.64
1281.684,-58.65
1281.699,-58.57
1281.714,-58.08
1281.729,-58.53
1281.744,-58.44
1281.759,-58.43
1281.774,-58.46
1281.789,-58.26
1281.804,-58.71
1281.819,-58.71
1281.834,-58.98
1281.849,-58.91
1281.864,-58.91
1281.879,-59.44
1281.894,-58.95
1281.909,-58.85
1281.924,-58.76
1281.939,-58.88
1281.954,-59.04
1281.969,-58.58
1281.984,-58.53
1281.999,-58.8
1282.014,-58.83
1282.029,-58.8
1282.044,-58.31
1282.059,-58.18
1282.074,-58.27
1282.089,-58.54
1282.104,-58.31
1282.119,-58.56
1282.134,-58.35
1282.149,-58.47
1282.164,-58.37
1282.179,-58.33
1282.194,-58.48
1282.209,-58.6
1282.224,-58.75
1282.239,-58.61
1282.254,-58.4
1282.269,-58.54
1282.284,-58.5
1282.299,-58.6
1282.314,-58.61
1282.329,-58.63
1282.344,-58.52
1282.359,-58.5
1282.374,-58.89
1282.389,-58.8
1282.404,-58.71
1282.419,-58.62
1282.434,-58.84
1282.449,-58.76
1282.464,-58.78
1282.479,-58.6
1282.494,-58.6
1282.509,-58.73
1282.524,-58.8
1282.539,-58.34
1282.554,-58.0
1282.569,-58.03
1282.584,-57.97
1282.599,-57.92
1282.614,-58.15
1282.629,-57.96
1282.644,-58.1
1282.659,-58.06
1282.674,-58.1
1282.689,-58.04
1282.704,-58.14
1282.719,-58.66
1282.734,-58.58
1282.749,-58.59
1282.764,-58.58
1282.779,-58.55
1282.794,-58.92
1282.809,-58.46
1282.824,-58.77
1282.839,-58.54
1282.854,-58.35
1282.869,-58.56
1282.884,-58.04
1282.899,-58.06
1282.914,-58.0
1282.929,-57.85
1282.944,-57.91
1282.959,-57.84
1282.974,-58.08
1282.989,-58.09
1283.004,-58.05
1283.019,-58.02
1283.034,-57.98
1283.049,-58.18
1283.064,-58.47
1283.079,-58.6
1283.094,-58.46
1283.109,-58.56
1283.124,-58.39
1283.139,-58.5
1283.154,-58.06
1283.169,-58.16
1283.184,-58.06
1283.199,-58.02
1283.214,-57.91
1283.229,-57.71
1283.244,-58.02
1283.259,-58.09
1283.274,-58.09
1283.289,-57.96
1283.304,-57.85
1283.319,-58.35
1283.334,-58.15
1283.349,-58.28
1283.364,-58.3
1283.379,-58.05
1283.394,-58.56
1283.409,-58.1
1283.424,-58.28
1283.439,-58.2
1283.454,-58.03
1283.469,-58.14
1283.484,-57.86
1283.499,-57.81
1283.514,-57.79
1283.529,-57.6
1283.544,-57.87
1283.559,-57.82
1283.574,-57.89
1283.589,-57.9
1283.604,-57.83
1283.619,-57.83
1283.634,-57.91
1283.649,-58.0
1283.664,-58.36
1283.679,-58.25
1283.694,-58.4
1283.709,-58.45
1283.724,-58.33
1283.739,-58.35
1283.754,-58.02
1283.769,-58.15
1283.784,-58.05
1283.799,-58.03
1283.814,-58.16
1283.829,-57.79
1283.844,-57.93
1283.859,-57.75
1283.874,-57.7
1283.889,-57.94
1283.904,-57.88
1283.919,-58.19
1283.934,-58.16
1283.949,-58.31
1283.964,-58.19
1283.979,-58.01
1283.994,-58.35
1284.009,-58.4
1284.024,-58.56
1284.039,-58.55
1284.054,-58.54
1284.069,-58.74
1284.084,-58.42
1284.099,-58.18
1284.114,-58.19
1284.129,-58.12
1284.144,-58.08
1284.159,-58.19
1284.174,-58.16
1284.189,-58.58
1284.204,-58.37
1284.219,-58.5
1284.234,-58.65
1284.249,-58.52
1284.264,-58.7
1284.279,-58.56
1284.294,-58.81
1284.309,-58.85
1284.324,-58.57
1284.339,-58.68
1284.354,-58.54
1284.369,-58.76
1284.384,-58.85
1284.399,-58.46
1284.414,-58.95
1284.429,-58.67
1284.444,-58.7
1284.459,-58.67
1284.474,-58.53
1284.489,-58.65
1284.504,-58.54
1284.519,-58.71
1284.534,-58.42
1284.549,-58.23
1284.564,-58.54
1284.579,-58.34
1284.594,-58.47
1284.609,-58.7
1284.624,-58.63
1284.639,-58.78
1284.654,-58.61
1284.669,-58.45
1284.684,-58.56
1284.699,-58.17
1284.714,-58.37
1284.729,-58.16
1284.744,-58.07
1284.759,-58.34
1284.774,-58.08
1284.789,-58.28
1284.804,-57.96
1284.819,-58.07
1284.834,-58.29
1284.849,-58.06
1284.864,-58.39
1284.879,-58.13
1284.894,-58.31
1284.909,-58.29
1284.924,-57.96
1284.939,-58.28
1284.954,-58.1
1284.969,-58.31
1284.984,-58.5
1284.999,-58.32
1285.014,-58.25
1285.029,-58.1
1285.044,-57.89
1285.059,-58.02
1285.074,-57.72
1285.089,-57.83
1285.104,-57.88
1285.119,-57.77
1285.134,-57.95
1285.149,-57.7
1285.164,-57.87
1285.179,-57.81
1285.194,-57.56
1285.209,-57.74
1285.224,-57.62
1285.24,-57.84
1285.255,-57.79
1285.269,-57.7
1285.284,-57.9
1285.299,-57.73
1285.314,-58.02
1285.329,-58.05
1285.344,-57.89
1285.359,-58.12
1285.375,-57.77
1285.39,-57.85
1285.404,-57.82
1285.419,-57.62
1285.434,-57.77
1285.449,-57.61
1285.464,-57.7
1285.479,-57.5
1285.495,-57.59
1285.51,-57.8
1285.525,-57.62
1285.54,-57.94
1285.554,-58.24
1285.569,-58.13
1285.584,-58.24
1285.599,-58.38
1285.615,-58.34
1285.63,-58.26
1285.645,-57.98
1285.66,-58.19
1285.675,-58.21
1285.689,-58.23
1285.704,-58.29
1285.719,-58.06
1285.734,-58.39
1285.75,-58.23
1285.765,-58.18
1285.78,-58.07
1285.795,-58.09
1285.81,-58.55
1285.825,-58.32
1285.839,-58.28
1285.854,-58.25
1285.87,-58.33
1285.885,-58.66
1285.9,-58.29
1285.915,-58.34
1285.93,-58.59
1285.945,-58.58
1285.96,-58.68
1285.974,-58.26
1285.99,-58.14
1286.005,-58.15
1286.02,-58.33
1286.035,-58.15
1286.05,-58.15
1286.065,-58.26
1286.08,-58.42
1286.095,-58.32
1286.11,-58.09
1286.125,-58.35
1286.14,-58.63
1286.155,-58.85
1286.17,-58.61
1286.185,-58.46
1286.2,-58.7
1286.215,-59.05
1286.23,-58.93
1286.245,-58.31
1286.26,-58.25
1286.275,-58.66
1286.29,-58.42
1286.305,-58.07
1286.32,-57.79
1286.335,-58.21
1286.35,-58.48
1286.365,-58.13
1286.38,-57.98
1286.395,-58.18
1286.41,-58.64
1286.425,-58.35
1286.44,-58.06
1286.455,-58.1
1286.47,-58.53
1286.485,-58.86
1286.5,-58.39
1286.515,-58.11
1286.53,-58.16
1286.545,-58.64
1286.56,-58.38
1286.575,-57.95
1286.59,-57.96
1286.605,-58.35
1286.62,-58.37
1286.635,-58.15
1286.65,-58.03
1286.665,-58.21
1286.68,-58.58
1286.695,-57.96
1286.71,-57.84
1286.725,-57.86
1286.74,-58.04
1286.755,-58.25
1286.77,-57.7
1286.785,-57.95
1286.8,-58.04
1286.815,-58.08
1286.83,-58.07
1286.845,-57.78
1286.86,-58.0
1286.875,-58.26
1286.89,-58.32
1286.905,-58.22
1286.92,-58.15
1286.935,-58.55
1286.95,-58.59
1286.965,-58.04
1286.98,-58.19
1286.995,-58.26
1287.01,-58.9
1287.025,-58.41
1287.04,-58.04
1287.055,-58.21
1287.07,-58.57
1287.085,-58.76
1287.1,-58.29
1287.115,-58.33
1287.13,-58.73
1287.145,-58.53
1287.16,-58.27
1287.175,-57.9
1287.19,-58.1
1287.205,-58.63
1287.22,-58.14
1287.235,-57.74
1287.25,-58.13
1287.265,-58.54
1287.28,-58.67
1287.295,-58.3
1287.31,-58.35
1287.325,-58.73
1287.34,-58.57
1287.355,-58.06
1287.37,-57.84
1287.385,-58.03
1287.4,-58.17
1287.415,-57.86
1287.43,-57.93
1287.445,-58.21
1287.46,-58.4
1287.475,-58.34
1287.49,-58.06
1287.505,-58.11
1287.52,-58.49
1287.535,-58.84
1287.55,-58.67
1287.565,-58.2
1287.58,-58.38
1287.595,-58.71
1287.61,-58.22
1287.625,-57.99
1287.64,-58.27
1287.655,-58.54
1287.67,-58.56
1287.685,-58.15
1287.7,-58.19
1287.715,-58.57
1287.73,-58.68
1287.745,-58.5
1287.76,-58.05
1287.775,-58.64
1287.79,-58.93
1287.805,-58.69
1287.82,-58.44
1287.835,-58.3
1287.85,-58.73
1287.865,-58.93
1287.88,-58.44
1287.895,-58.24
1287.91,-58.52
1287.925,-58.79
1287.94,-58.36
1287.955,-58.13
1287.97,-58.65
1287.985,-58.65
1288.0,-58.61
1288.015,-58.29
1288.03,-58.39
1288.045,-59.0
1288.06,-58.91
1288.075,-58.52
1288.09,-58.31
1288.105,-58.6
1288.12,-59.1
1288.135,-58.52
1288.15,-58.35
1288.165,-58.89
1288.18,-58.99
1288.195,-58.88
1288.21,-58.56
1288.225,-58.45
1288.24,-59.24
1288.255,-58.97
1288.27,-58.64
1288.285,-58.44
1288.3,-58.5
1288.315,-59.01
1288.33,-58.72
1288.345,-58.37
1288.36,-58.96
1288.375,-59.08
1288.39,-58.94
1288.405,-58.6
1288.42,-58.55
1288.435,-59.12
1288.45,-58.74
1288.465,-58.61
1288.48,-58.69
1288.495,-58.86
1288.51,-59.45
1288.525,-58.88
1288.54,-58.77
1288.555,-58.98
1288.57,-59.03
1288.585,-59.21
1288.6,-58.64
1288.615,-58.86
1288.63,-59.32
1288.645,-58.76
1288.66,-58.52
1288.675,-58.3
1288.69,-58.71
1288.705,-58.87
1288.72,-58.44
1288.735,-58.55
1288.75,-58.84
1288.765,-58.96
1288.78,-58.8
1288.795,-58.32
1288.81,-58.6
1288.825,-59.17
1288.84,-59.06
1288.855,-58.69
1288.87,-58.36
1288.885,-58.91
1288.9,-59.05
1288.915,-58.54
1288.93,-58.17
1288.945,-58.45
1288.96,-58.81
1288.975,-58.53
1288.99,-58.13
1289.005,-58.31
1289.02,-58.67
1289.035,-58.61
1289.05,-58.14
1289.065,-58.01
1289.08,-58.25
1289.095,-58.55
1289.11,-58.27
1289.125,-57.86
1289.14,-58.31
1289.155,-58.7
1289.17,-58.29
1289.185,-58.0
1289.2,-58.24
1289.215,-58.54
1289.23,-58.32
1289.245,-58.01
1289.26,-57.94
1289.275,-58.64
1289.29,-58.44
1289.305,-58.24
1289.32,-58.04
1289.335,-57.96
1289.35,-58.55
1289.365,-58.21
1289.38,-57.88
1289.395,-58.14
1289.41,-58.35
1289.425,-58.5
1289.44,-58.09
1289.455,-57.82
1289.47,-58.28
1289.485,-58.01
1289.5,-57.71
1289.515,-57.5
1289.53,-57.5
1289.545,-57.87
1289.56,-57.39
1289.575,-57.32
1289.59,-57.34
1289.605,-57.64
1289.62,-57.96
1289.635,-57.51
1289.65,-57.47
1289.665,-57.73
1289.68,-58.07
1289.695,-57.68
1289.71,-57.45
1289.725,-57.51
1289.74,-57.84
1289.755,-57.51
1289.77,-57.43
1289.785,-57.63
1289.8,-57.97
1289.815,-58.26
1289.83,-57.7
1289.845,-57.63
1289.86,-57.84
1289.875,-58.14
1289.89,-57.71
1289.905,-57.5
1289.92,-57.61
1289.935,-58.06
1289.95,-57.78
1289.965,-57.48
1289.98,-57.58
1289.995,-57.91
1290.01,-58.05
1290.025,-57.49
1290.04,-57.53
1290.055,-57.79
1290.07,-57.79
1290.085,-57.75
1290.1,-57.32
1290.115,-57.59
1290.13,-57.93
1290.145,-57.49
1290.16,-57.25
1290.175,-57.47
1290.19,-57.82
1290.205,-57.86
1290.22,-57.32
1290.235,-57.64
1290.25,-58.01
1290.265,-57.91
1290.28,-57.55
1290.295,-57.42
1290.31,-57.86
1290.325,-57.93
1290.34,-57.85
1290.355,-57.75
1290.37,-57.51
1290.385,-57.97
1290.4,-58.09
1290.415,-57.81
1290.43,-57.79
1290.445,-58.14
1290.46,-58.33
1290.475,-57.99
1290.49,-57.79
1290.505,-58.28
1290.52,-58.29
1290.535,-58.28
1290.55,-57.97
1290.565,-57.97
1290.58,-58.5
1290.595,-58.47
1290.61,-58.2
1290.625,-57.88
1290.64,-58.36
1290.655,-58.45
1290.67,-58.3
1290.685,-58.0
1290.7,-58.32
1290.715,-58.76
1290.73,-58.8
1290.745,-58.36
1290.76,-58.56
1290.775,-58.86
1290.79,-59.01
1290.805,-58.39
1290.82,-58.13
1290.835,-58.41
1290.85,-58.53
1290.865,-58.27
1290.88,-57.97
1290.895,-58.18
1290.91,-58.51
1290.925,-58.48
1290.94,-58.04
1290.955,-58.37
1290.97,-58.58
1290.985,-58.55
1291.0,-58.17
1291.015,-58.03
1291.03,-58.71
1291.045,-58.7
1291.06,-58.14
1291.075,-58.45
1291.09,-58.39
1291.105,-59.04
1291.12,-58.65
1291.135,-58.16
1291.15,-58.48
1291.165,-58.83
1291.18,-58.28
1291.195,-57.97
1291.21,-57.73
1291.225,-58.28
1291.24,-58.32
1291.255,-57.71
1291.27,-57.93
1291.285,-58.29
1291.3,-58.53
1291.315,-58.34
1291.33,-57.9
1291.345,-58.55
1291.36,-58.56
1291.375,-58.43
1291.39,-58.22
1291.405,-57.88
1291.42,-58.36
1291.435,-58.54
1291.45,-57.93
1291.465,-57.98
1291.48,-58.45
1291.495,-58.89
1291.51,-58.51
1291.525,-58.1
1291.54,-58.47
1291.555,-58.54
1291.57,-58.43
1291.585,-58.16
1291.6,-57.98
1291.615,-58.43
1291.63,-58.59
1291.645,-58.03
1291.66,-58.16
1291.675,-58.49
1291.69,-58.5
1291.705,-58.44
1291.72,-58.0
1291.735,-58.19
1291.75,-58.59
1291.765,-58.13
1291.78,-58.07
1291.795,-58.07
1291.81,-58.43
1291.825,-58.52
1291.84,-58.01
1291.855,-58.02
1291.87,-58.59
1291.885,-58.53
1291.9,-58.29
1291.915,-57.92
1291.93,-58.16
1291.945,-58.65
1291.96,-58.27
1291.975,-58.11
1291.99,-58.28
1292.005,-58.45
1292.02,-58.78
1292.035,-58.1
1292.05,-58.04
1292.065,-58.69
1292.08,-58.39
1292.095,-58.35
1292.11,-58.13
1292.125,-58.26
1292.14,-58.72
1292.155,-58.45
1292.17,-58.15
1292.185,-58.58
1292.2,-58.76
1292.215,-58.8
1292.23,-58.45
1292.245,-58.38
1292.26,-59.02
1292.275,-58.99
1292.29,-58.38
1292.305,-58.46
1292.32,-58.46
1292.335,-58.8
1292.35,-58.42
1292.365,-58.16
1292.38,-58.75
1292.395,-58.53
1292.41,-58.62
1292.425,-58.48
1292.44,-58.42
1292.455,-59.04
1292.47,-58.96
1292.485,-58.56
1292.5,-58.47
1292.515,-58.47
1292.53,-58.62
1292.545,-58.41
1292.56,-58.23
1292.575,-58.75
1292.59,-58.72
1292.605,-58.62
1292.62,-58.61
1292.635,-58.64
1292.65,-59.04
1292.665,-58.74
1292.68,-58.22
1292.695,-58.67
1292.71,-58.54
1292.725,-58.43
1292.74,-58.12
1292.755,-57.95
1292.77,-58.44
1292.785,-58.47
1292.8,-58.02
1292.815,-57.93
1292.83,-58.07
1292.845,-58.43
1292.86,-58.3
1292.875,-57.87
1292.89,-58.12
1292.905,-58.43
1292.92,-58.46
1292.935,-58.4
1292.95,-58.07
1292.965,-58.45
1292.98,-58.61
1292.995,-58.09
1293.01,-58.16
1293.025,-58.24
1293.04,-58.26
1293.055,-58.26
1293.07,-57.84
1293.085,-58.06
1293.1,-58.3
1293.115,-57.93
1293.13,-58.02
1293.145,-58.03
1293.16,-58.39
1293.175,-58.46
1293.19,-58.06
1293.205,-57.93
1293.22,-58.33
1293.235,-58.22
1293.25,-58.24
1293.266,-57.82
1293.281,-57.92
1293.295,-58.38
1293.31,-57.93
1293.325,-57.73
1293.34,-57.88
1293.355,-57.86
1293.37,-57.95
1293.385,-57.35
1293.401,-57.52
1293.416,-57.95
1293.43,-57.74
1293.445,-57.64
1293.46,-57.43
1293.475,-57.77
1293.49,-57.89
1293.505,-57.61
1293.521,-57.5
1293.536,-57.95
1293.551,-57.92
1293.566,-57.93
1293.58,-57.58
1293.595,-57.59
1293.61,-58.08
1293.625,-57.75
1293.641,-57.53
1293.656,-57.48
1293.671,-57.63
1293.686,-57.95
1293.701,-57.47
1293.715,-57.29
1293.73,-57.66
1293.745,-57.87
1293.76,-57.71
1293.776,-57.57
1293.791,-57.5
1293.806,-57.98
1293.821,-57.85
1293.836,-57.63
1293.851,-57.58
1293.865,-57.74
1293.88,-57.78
1293.896,-57.5
1293.911,-57.28
1293.926,-57.78
1293.941,-57.64
1293.956,-57.55
1293.971,-57.27
1293.986,-57.44
1294.001,-57.82
1294.016,-57.75
1294.031,-57.3
1294.046,-57.54
1294.061,-57.73
1294.076,-57.74
1294.091,-57.43
1294.106,-57.21
1294.121,-57.73
1294.136,-57.77
1294.151,-57.41
1294.166,-57.26
1294.181,-57.48
1294.196,-57.9
1294.211,-57.82
1294.226,-57.42
1294.241,-57.65
1294.256,-57.86
1294.271,-57.78
1294.286,-57.67
1294.301,-57.32
1294.316,-57.79
1294.331,-57.94
1294.346,-57.51
1294.361,-57.59
1294.376,-57.85
1294.391,-57.87
1294.406,-57.95
1294.421,-57.52
1294.436,-57.78
1294.451,-58.02
1294.466,-57.88
1294.481,-57.57
1294.496,-57.79
1294.511,-58.07
1294.526,-58.24
1294.541,-57.7
1294.556,-57.65
1294.571,-58.07
1294.586,-58.18
1294.601,-58.05
1294.616,-57.59
1294.631,-57.93
1294.646,-58.27
1294.661,-57.88
1294.676,-57.71
1294.691,-57.76
1294.706,-57.94
1294.721,-58.14
1294.736,-57.84
1294.751,-57.81
1294.766,-58.4
1294.781,-58.14
1294.796,-58.03
1294.811,-58.01
1294.826,-58.23
1294.841,-58.67
1294.856,-58.33
1294.871,-58.06
1294.886,-58.2
1294.901,-58.55
1294.916,-58.46
1294.931,-57.9
1294.946,-57.88
1294.961,-58.36
1294.976,-58.49
1294.991,-58.16
1295.006,-57.91
1295.021,-58.22
1295.036,-58.73
1295.051,-58.52
1295.066,-58.19
1295.081,-58.41
1295.096,-58.94
1295.111,-58.93
1295.126,-58.66
1295.141,-58.38
1295.156,-58.94
1295.171,-59.04
1295.186,-58.59
1295.201,-58.48
1295.216,-58.82
1295.231,-58.58
1295.246,-58.5
1295.261,-58.13
1295.276,-58.57
1295.291,-58.8
1295.306,-58.86
1295.321,-58.55
1295.336,-58.43
1295.351,-58.97
1295.366,-59.03
1295.381,-58.25
1295.396,-58.57
1295.411,-58.83
1295.426,-58.79
1295.441,-58.56
1295.456,-58.27
1295.471,-58.58
1295.486,-58.99
1295.501,-58.31
1295.516,-58.07
1295.531,-58.24
1295.546,-58.18
1295.561,-58.48
1295.576,-57.89
1295.591,-57.96
1295.606,-58.32
1295.621,-58.41
1295.636,-58.14
1295.651,-58.27
1295.666,-58.5
1295.681,-58.98
1295.696,-58.54
1295.711,-58.43
1295.726,-58.81
1295.741,-58.78
1295.756,-58.66
1295.771,-58.43
1295.786,-58.41
1295.801,-59.25
1295.816,-58.89
1295.831,-58.61
1295.846,-58.49
1295.861,-58.59
1295.876,-58.58
1295.891,-58.53
1295.906,-58.07
1295.921,-58.58
1295.936,-58.73
1295.951,-58.67
1295.966,-58.47
1295.981,-58.66
1295.996,-58.6
1296.011,-58.47
1296.026,-58.13
1296.041,-58.06
1296.056,-58.22
1296.071,-58.23
1296.086,-58.14
1296.101,-58.07
1296.116,-58.09
1296.131,-58.12
1296.146,-58.22
1296.161,-57.96
1296.176,-58.1
1296.191,-58.08
1296.206,-57.8
1296.221,-57.76
1296.236,-58.13
1296.251,-58.41
1296.266,-58.33
1296.281,-58.14
1296.296,-58.18
1296.311,-58.2
1296.326,-58.01
1296.341,-58.29
1296.356,-58.19
1296.371,-58.47
1296.386,-58.63
1296.401,-58.43
1296.416,-58.44
1296.431,-58.67
1296.446,-58.46
1296.461,-58.74
1296.476,-58.42
1296.491,-58.32
1296.506,-58.51
1296.521,-58.43
1296.536,-58.18
1296.551,-58.58
1296.566,-58.29
1296.581,-58.41
1296.596,-58.29
1296.611,-58.26
1296.626,-58.54
1296.641,-58.58
1296.656,-58.35
1296.671,-58.63
1296.686,-58.27
1296.701,-58.24
1296.716,-58.33
1296.731,-58.04
1296.746,-58.31
1296.761,-58.33
1296.776,-58.18
1296.791,-58.55
1296.806,-57.97
1296.821,-57.9
1296.836,-57.88
1296.851,-57.83
1296.866,-57.89
1296.881,-57.79
1296.896,-57.81
1296.911,-58.34
1296.926,-58.07
1296.941,-58.14
1296.956,-58.12
1296.971,-58.21
1296.986,-58.08
1297.001,-58.0
1297.016,-58.24
1297.031,-58.82
1297.046,-58.65
1297.061,-58.56
1297.076,-58.39
1297.091,-58.59
1297.106,-58.55
1297.121,-58.45
1297.136,-58.21
1297.151,-58.39
1297.166,-58.81
1297.181,-58.66
1297.196,-58.52
1297.211,-58.68
1297.226,-58.78
1297.241,-58.68
1297.256,-58.08
1297.271,-58.37
1297.286,-58.41
1297.301,-58.49
1297.316,-58.34
1297.331,-58.54
1297.346,-58.61
1297.361,-58.78
1297.376,-58.21
1297.391,-58.2
1297.406,-58.25
1297.421,-58.25
1297.436,-58.1
1297.451,-58.22
1297.466,-58.13
1297.481,-58.68
1297.496,-58.24
1297.511,-58.09
1297.526,-58.22
1297.541,-58.39
1297.556,-58.39
1297.571,-58.28
1297.586,-58.29
1297.601,-58.95
1297.616,-58.65
1297.631,-58.23
1297.646,-58.32
1297.661,-58.43
1297.676,-58.4
1297.691,-58.13
1297.706,-58.09
1297.721,-58.42
1297.736,-58.66
1297.751,-58.49
1297.766,-58.34
1297.781,-58.45
1297.796,-58.49
1297.811,-58.59
1297.826,-58.38
1297.841,-58.58
1297.856,-58.84
1297.871,-58.73
1297.886,-58.91
1297.901,-58.96
1297.916,-58.8
1297.931,-59.05
1297.946,-58.51
1297.961,-58.84
1297.976,-59.34
1297.991,-59.31
1298.006,-59.63
1298.021,-59.33
1298.036,-58.9
1298.051,-59.28
1298.066,-58.76
1298.081,-58.87
1298.096,-58.77
1298.111,-58.8
1298.126,-58.84
1298.141,-58.85
1298.156,-59.05
1298.171,-59.19
1298.186,-58.56
1298.201,-58.49
1298.216,-58.65
1298.231,-58.55
1298.246,-58.5
1298.261,-58.71
1298.276,-58.57
1298.291,-59.06
1298.306,-58.56
1298.321,-58.45
1298.336,-58.4
1298.351,-58.36
1298.366,-58.27
1298.381,-58.14
1298.396,-57.97
1298.411,-58.69
1298.426,-58.43
1298.441,-58.14
1298.456,-58.11
1298.471,-58.22
1298.486,-58.15
1298.501,-58.01
1298.516,-58.07
1298.531,-58.39
1298.546,-58.46
1298.561,-58.36
1298.576,-58.33
1298.591,-58.52
1298.606,-58.66
1298.621,-58.58
1298.636,-58.46
1298.651,-58.6
1298.666,-59.03
1298.681,-58.93
1298.696,-58.8
1298.711,-58.87
1298.726,-58.98
1298.741,-58.96
1298.756,-58.44
1298.771,-58.53
1298.786,-59.09
1298.801,-59.0
1298.816,-58.86
1298.831,-58.88
1298.846,-59.07
1298.861,-59.26
1298.876,-58.8
1298.891,-58.65
1298.906,-58.9
1298.921,-58.95
1298.936,-58.92
1298.951,-58.94
1298.966,-58.91
1298.981,-58.82
1298.996,-58.5
1299.011,-58.03
1299.026,-57.93
1299.041,-58.06
1299.056,-58.07
1299.071,-58.1
1299.086,-57.9
1299.101,-58.28
1299.116,-58.32
1299.131,-58.1
1299.146,-58.2
1299.161,-58.02
1299.176,-57.91
1299.191,-58.2
1299.206,-58.24
1299.221,-58.43
1299.236,-58.76
1299.251,-58.39
1299.266,-58.46
1299.281,-58.44
1299.296,-58.2
1299.311,-58.54
1299.326,-58.33
1299.341,-58.37
1299.356,-58.79
1299.371,-58.58
1299.386,-58.91
1299.401,-58.9
1299.416,-58.41
1299.431,-58.62
1299.446,-58.73
1299.461,-58.66
1299.476,-59.03
1299.491,-58.72
1299.506,-59.11
1299.521,-59.14
1299.536,-58.95
1299.551,-59.04
1299.566,-58.75
1299.581,-58.63
1299.596,-58.85
1299.611,-58.71
1299.626,-58.74
1299.641,-58.82
1299.656,-58.67
1299.671,-58.57
1299.686,-58.43
1299.701,-58.22
1299.716,-58.31
1299.731,-58.56
1299.746,-58.42
1299.761,-58.75
1299.776,-58.6
1299.791,-58.28
1299.806,-58.47
1299.821,-58.3
1299.836,-58.37
1299.851,-58.6
1299.866,-58.55
1299.881,-58.86
1299.896,-58.8
1299.911,-58.61
1299.926,-59.0
1299.941,-58.66
1299.956,-58.49
1299.971,-58.77
1299.986,-58.9
1300.001,-58.65
1300.016,-58.85
1300.031,-59.03
1300.046,-59.3
1300.061,-59.24
1300.076,-58.82
1300.091,-59.07
1300.106,-59.51
1300.121,-59.09
1300.136,-58.95
1300.151,-58.89
1300.166,-59.17
1300.181,-59.5
1300.196,-59.17
1300.211,-59.07
1300.226,-59.3
1300.241,-59.15
1300.256,-58.96
1300.271,-58.75
1300.286,-58.79
1300.301,-59.23
1300.316,-58.95
1300.331,-58.89
1300.346,-59.1
1300.361,-59.08
1300.376,-58.78
1300.391,-58.34
1300.406,-58.39
1300.421,-58.71
1300.436,-58.86
1300.451,-58.53
1300.466,-58.69
1300.481,-58.94
1300.496,-58.9
1300.511,-58.28
1300.526,-58.34
1300.541,-58.43
1300.556,-58.63
1300.571,-58.34
1300.586,-58.22
1300.601,-58.51
1300.616,-58.47
1300.631,-58.03
1300.646,-58.03
1300.661,-58.18
1300.676,-58.38
1300.691,-58.22
1300.706,-58.08
1300.721,-58.33
1300.736,-58.47
1300.751,-58.2
1300.766,-58.0
1300.781,-58.01
1300.796,-58.37
1300.811,-58.34
1300.826,-58.09
1300.841,-58.07
1300.856,-58.38
1300.871,-58.16
1300.886,-57.97
1300.901,-57.7
1300.916,-57.92
1300.931,-57.93
1300.946,-57.53
1300.961,-57.63
1300.976,-57.82
1300.991,-57.73
1301.006,-58.02
1301.021,-57.7
1301.036,-57.82
1301.051,-58.2
1301.066,-57.95
1301.081,-57.9
1301.096,-58.13
1301.111,-57.84
1301.126,-58.1
1301.141,-58.21
1301.156,-58.1
1301.171,-58.37
1301.186,-58.25
1301.201,-57.95
1301.216,-58.15
1301.231,-58.03
1301.246,-57.91
1301.261,-58.02
1301.276,-57.91
1301.292,-58.08
1301.307,-58.36
1301.321,-57.99
1301.336,-57.95
1301.351,-57.93
1301.366,-57.9
1301.381,-58.12
1301.396,-58.03
1301.411,-58.14
1301.427,-58.41
1301.442,-58.09
1301.457,-58.33
1301.471,-58.27
1301.486,-57.91
1301.501,-58.11
1301.516,-58.32
1301.531,-58.26
1301.547,-58.58
1301.562,-58.38
1301.577,-58.14
1301.592,-58.37
1301.606,-58.16
1301.621,-58.19
1301.636,-58.31
1301.651,-58.17
1301.667,-58.37
1301.682,-58.56
1301.697,-58.2
1301.712,-58.49
1301.727,-58.47
1301.742,-58.31
1301.756,-58.54
1301.771,-58.29
1301.786,-58.41
1301.802,-58.82
1301.817,-58.21
1301.832,-58.09
1301.847,-58.1
1301.862,-57.79
1301.877,-58.05
1301.891,-57.77
1301.906,-57.77
1301.922,-58.15
1301.937,-57.95
1301.952,-57.71
1301.967,-58.01
1301.982,-58.03
1301.997,-58.12
1302.012,-57.73
1302.027,-57.69
1302.042,-58.09
1302.057,-58.01
1302.072,-57.65
1302.087,-57.81
1302.102,-58.03
1302.117,-58.29
1302.132,-57.95
1302.147,-57.59
1302.162,-57.91
1302.177,-58.24
1302.192,-57.79
1302.207,-57.82
1302.222,-58.03
1302.237,-58.34
1302.252,-58.23
1302.267,-58.0
1302.282,-58.05
1302.297,-58.61
1302.312,-58.02
1302.327,-57.78
1302.342,-57.99
1302.357,-58.48
1302.372,-58.62
1302.387,-58.29
1302.402,-58.18
1302.417,-58.61
1302.432,-58.58
1302.447,-58.21
1302.462,-57.9
1302.477,-58.4
1302.492,-58.5
1302.507,-58.31
1302.522,-57.97
1302.537,-58.14
1302.552,-58.33
1302.567,-57.98
1302.582,-57.9
1302.597,-58.15
1302.612,-58.59
1302.627,-58.05
1302.642,-57.84
1302.657,-57.94
1302.672,-58.26
1302.687,-58.0
1302.702,-57.84
1302.717,-57.89
1302.732,-58.25
1302.747,-57.94
1302.762,-57.64
1302.777,-57.52
1302.792,-57.81
1302.807,-57.76
1302.822,-57.5
1302.837,-57.55
1302.852,-57.97
1302.867,-58.04
1302.882,-57.64
1302.897,-57.39
1302.912,-57.7
1302.927,-57.78
1302.942,-57.3
1302.957,-57.59
1302.972,-57.7
1302.987,-57.8
1303.002,-57.29
1303.017,-57.31
1303.032,-57.58
1303.047,-57.74
1303.062,-57.42
1303.077,-57.33
1303.092,-57.55
1303.107,-57.54
1303.122,-57.1
1303.137,-56.96
1303.152,-57.04
1303.167,-57.32
1303.182,-56.94
1303.197,-56.82
1303.212,-57.03
1303.227,-57.13
1303.242,-56.88
1303.257,-56.68
1303.272,-56.91
1303.287,-57.21
1303.302,-57.16
1303.317,-56.98
1303.332,-57.11
1303.347,-57.43
1303.362,-57.3
1303.377,-56.93
1303.392,-56.92
1303.407,-57.27
1303.422,-57.37
1303.437,-57.06
1303.452,-57.07
1303.467,-57.42
1303.482,-57.18
1303.497,-57.03
1303.512,-56.89
1303.527,-57.35
1303.542,-57.35
1303.557,-57.16
1303.572,-57.04
1303.587,-57.39
1303.602,-57.62
1303.617,-57.13
1303.632,-57.25
1303.647,-57.64
1303.662,-57.71
1303.677,-57.3
1303.692,-57.15
1303.707,-57.19
1303.722,-57.52
1303.737,-57.2
1303.752,-57.18
1303.767,-57.39
1303.782,-57.82
1303.797,-57.55
1303.812,-57.2
1303.827,-57.61
1303.842,-57.75
1303.857,-57.66
1303.872,-57.5
1303.887,-57.56
1303.902,-58.17
1303.917,-58.17
1303.932,-57.67
1303.947,-58.06
1303.962,-58.39
1303.977,-58.03
1303.992,-57.8
1304.007,-57.95
1304.022,-58.18
1304.037,-58.23
1304.052,-57.65
1304.067,-57.59
1304.082,-58.29
1304.097,-58.1
1304.112,-57.74
1304.127,-58.15
1304.142,-58.46
1304.157,-58.97
1304.172,-58.5
1304.187,-58.31
1304.202,-59.01
1304.217,-59.02
1304.232,-58.36
1304.247,-58.52
1304.262,-59.17
1304.277,-58.75
1304.292,-58.47
1304.307,-58.03
1304.322,-58.36
1304.337,-58.68
1304.352,-58.09
1304.367,-58.03
1304.382,-58.4
1304.397,-58.28
1304.412,-58.13
1304.427,-58.09
1304.442,-58.28
1304.457,-58.68
1304.472,-58.27
1304.487,-58.1
1304.502,-58.64
1304.517,-58.69
1304.532,-58.1
1304.547,-58.24
1304.562,-58.5
1304.577,-58.46
1304.592,-58.49
1304.607,-57.94
1304.622,-58.42
1304.637,-58.65
1304.652,-58.14
1304.667,-58.1
1304.682,-58.58
1304.697,-58.45
1304.712,-58.61
1304.727,-58.41
1304.742,-58.53
1304.757,-59.06
1304.772,-58.72
1304.787,-58.33
1304.802,-58.78
1304.817,-59.07
1304.832,-58.63
1304.847,-58.49
1304.862,-58.75
1304.877,-58.85
1304.892,-58.84
1304.907,-58.57
1304.922,-58.59
1304.937,-59.18
1304.952,-58.76
1304.967,-58.33
1304.982,-58.85
1304.997,-58.85
1305.012,-58.78
1305.027,-58.5
1305.042,-58.76
1305.057,-58.87
1305.072,-59.28
1305.087,-58.49
1305.102,-58.67
1305.117,-59.15
1305.132,-58.76
1305.147,-58.55
1305.162,-58.47
1305.177,-58.54
1305.192,-58.6
1305.207,-58.29
1305.222,-58.01
1305.237,-58.64
1305.252,-58.61
1305.267,-57.84
1305.282,-57.97
1305.297,-58.43
1305.312,-58.36
1305.327,-57.97
1305.342,-58.04
1305.357,-58.36
1305.372,-58.63
1305.387,-58.21
1305.402,-58.24
1305.417,-58.8
1305.432,-58.57
1305.447,-58.19
1305.462,-58.01
1305.477,-58.52
1305.492,-58.62
1305.507,-58.14
1305.522,-57.99
1305.537,-58.26
1305.552,-58.54
1305.567,-57.98
1305.582,-58.08
1305.597,-58.29
1305.612,-58.47
1305.627,-58.03
1305.642,-57.84
1305.657,-57.98
1305.672,-58.46
1305.687,-57.96
1305.702,-57.85
1305.717,-58.18
1305.732,-58.26
1305.747,-57.98
1305.762,-57.73
1305.777,-57.8
1305.792,-58.37
1305.807,-58.16
1305.822,-57.83
1305.837,-58.03
1305.852,-58.53
1305.867,-57.97
1305.882,-57.81
1305.897,-58.09
1305.912,-58.04
1305.927,-58.21
1305.942,-57.64
1305.957,-57.72
1305.972,-58.18
1305.987,-58.01
1306.002,-57.69
1306.017,-57.97
1306.032,-58.51
1306.047,-58.39
1306.062,-58.22
1306.077,-57.89
1306.092,-58.36
1306.107,-58.6
1306.122,-58.08
1306.137,-58.17
1306.152,-58.71
1306.167,-58.76
1306.182,-58.55
1306.197,-58.53
1306.212,-58.59
1306.227,-59.26
1306.242,-58.61
1306.257,-58.44
1306.272,-59.0
1306.287,-59.09
1306.302,-58.89
1306.317,-58.76
1306.332,-59.15
1306.347,-59.33
1306.362,-59.0
1306.377,-58.54
1306.392,-58.78
1306.407,-59.57
1306.422,-58.92
1306.437,-58.8
1306.452,-58.72
1306.467,-59.09
1306.482,-58.8
1306.497,-58.54
1306.512,-58.73
1306.527,-59.24
1306.542,-59.01
1306.557,-58.56
1306.572,-58.56
1306.587,-58.84
1306.602,-58.86
1306.617,-58.62
1306.632,-58.69
1306.647,-59.14
1306.662,-59.26
1306.677,-58.61
1306.692,-58.78
1306.707,-59.57
1306.722,-59.94
1306.737,-59.41
1306.752,-59.42
1306.767,-59.5
1306.782,-60.05
1306.797,-59.16
1306.812,-58.97
1306.827,-59.56
1306.842,-59.44
1306.857,-58.77
1306.872,-58.73
1306.887,-58.98
1306.902,-59.37
1306.917,-59.19
1306.932,-58.55
1306.947,-59.15
1306.962,-59.49
1306.977,-59.01
1306.992,-58.66
1307.007,-59.38
1307.022,-59.67
1307.037,-59.24
1307.052,-58.61
1307.067,-58.85
1307.082,-59.57
1307.097,-59.19
1307.112,-58.66
1307.127,-58.99
1307.142,-59.46
1307.157,-58.64
1307.172,-58.41
1307.187,-58.2
1307.202,-58.75
1307.217,-58.8
1307.232,-58.22
1307.247,-58.43
1307.262,-58.91
1307.277,-58.54
1307.292,-58.46
1307.307,-58.54
1307.322,-58.84
1307.337,-59.28
1307.352,-58.71
1307.367,-58.69
1307.382,-59.33
1307.397,-59.22
1307.412,-58.45
1307.427,-58.8
1307.442,-58.96
1307.457,-58.94
1307.472,-58.73
1307.487,-58.46
1307.502,-58.9
1307.517,-59.01
1307.532,-58.44
1307.547,-58.54
1307.562,-59.08
1307.577,-59.08
1307.592,-59.0
1307.607,-58.82
1307.622,-59.12
1307.637,-59.18
1307.652,-58.83
1307.667,-58.62
1307.682,-59.19
1307.697,-59.46
1307.712,-58.77
1307.727,-58.39
1307.742,-58.67
1307.757,-58.63
1307.772,-58.54
1307.787,-58.4
1307.802,-58.71
1307.817,-58.56
1307.832,-58.23
1307.847,-58.19
1307.862,-58.66
1307.877,-58.78
1307.892,-58.63
1307.907,-58.3
1307.922,-58.53
1307.937,-58.7
1307.952,-58.29
1307.967,-58.52
1307.982,-58.7
1307.997,-59.11
1308.012,-58.62
1308.027,-58.24
1308.042,-58.55
1308.057,-58.6
1308.072,-58.39
1308.087,-58.02
1308.102,-58.36
1308.117,-58.3
1308.132,-58.15
1308.147,-58.08
1308.162,-58.4
1308.177,-58.56
1308.192,-58.64
1308.207,-58.37
1308.222,-58.44
1308.237,-58.63
1308.252,-58.51
1308.267,-58.19
1308.282,-58.68
1308.297,-58.63
1308.312,-58.34
1308.327,-58.54
1308.342,-58.26
1308.357,-58.49
1308.372,-58.48
1308.387,-58.03
1308.402,-58.23
1308.417,-58.4
1308.432,-58.13
1308.447,-57.98
1308.462,-58.38
1308.477,-58.28
1308.492,-58.4
1308.507,-58.45
1308.522,-58.2
1308.537,-58.54
1308.552,-58.35
1308.567,-58.08
1308.582,-58.68
1308.597,-58.83
1308.612,-58.66
1308.627,-58.6
1308.642,-58.72
1308.657,-58.59
1308.672,-59.06
1308.687,-58.85
1308.702,-58.79
1308.717,-58.78
1308.732,-58.78
1308.747,-58.69
1308.762,-58.81
1308.777,-58.66
1308.792,-58.59
1308.807,-58.69
1308.822,-58.8
1308.837,-58.98
1308.852,-58.81
1308.867,-58.62
1308.882,-59.02
1308.897,-59.01
1308.912,-59.01
1308.927,-59.14
1308.942,-59.21
1308.957,-59.45
1308.972,-59.1
1308.987,-58.96
1309.002,-58.95
1309.017,-58.87
1309.032,-58.97
1309.047,-58.73
1309.062,-58.79
1309.077,-58.73
1309.092,-59.01
1309.107,-59.07
1309.122,-59.03
1309.137,-59.1
1309.152,-58.62
1309.167,-58.81
1309.182,-58.98
1309.198,-58.72
1309.212,-58.83
1309.227,-58.87
1309.242,-58.9
1309.257,-58.84
1309.272,-58.88
1309.287,-58.35
1309.302,-58.86
1309.318,-59.02
1309.333,-58.36
1309.347,-58.41
1309.362,-58.43
1309.377,-58.36
1309.392,-58.46
1309.407,-58.52
1309.422,-58.5
1309.438,-58.86
1309.453,-58.67
1309.468,-58.29
1309.483,-58.83
1309.497,-59.0
1309.512,-58.55
1309.527,-58.86
1309.542,-58.95
1309.557,-59.08
1309.573,-59.11
1309.588,-58.86
1309.603,-58.95
1309.618,-59.12
1309.632,-58.67
1309.647,-58.36
1309.662,-58.95
1309.677,-58.6
1309.693,-58.35
1309.708,-58.29
1309.723,-58.48
1309.738,-58.34
1309.753,-58.14
1309.768,-58.3
1309.782,-58.79
1309.797,-58.91
1309.813,-58.34
1309.828,-58.44
1309.843,-58.7
1309.858,-58.83
1309.873,-58.74
1309.888,-58.53
1309.903,-58.84
1309.917,-58.86
1309.932,-58.57
1309.948,-58.65
1309.963,-59.05
1309.978,-58.86
1309.993,-58.84
1310.008,-58.85
1310.023,-58.96
1310.038,-59.03
1310.053,-58.87
1310.068,-59.22
1310.083,-59.29
1310.098,-59.25
1310.113,-59.03
1310.128,-59.21
1310.143,-59.52
1310.158,-59.66
1310.173,-59.51
1310.188,-59.46
1310.203,-59.6
1310.218,-59.44
1310.233,-59.14
1310.248,-59.42
1310.263,-59.23
1310.278,-59.1
1310.293,-59.57
1310.308,-59.26
1310.323,-59.47
1310.338,-59.64
1310.353,-59.45
1310.368,-59.57
1310.383,-59.5
1310.398,-59.5
1310.413,-59.32
1310.428,-59.74
1310.443,-59.21
1310.458,-59.22
1310.473,-59.84
1310.488,-59.5
1310.503,-59.61
1310.518,-59.64
1310.533,-59.5
1310.548,-59.34
1310.563,-59.32
1310.578,-59.31
1310.593,-59.2
1310.608,-59.34
1310.623,-58.84
1310.638,-58.83
1310.653,-59.46
1310.668,-59.17
1310.683,-59.41
1310.698,-59.4
1310.713,-59.08
1310.728,-59.18
1310.743,-59.38
1310.758,-59.31
1310.773,-59.22
1310.788,-59.18
1310.803,-58.86
1310.818,-59.02
1310.833,-59.37
1310.848,-59.1
1310.863,-59.17
1310.878,-59.06
1310.893,-58.79
1310.908,-58.96
1310.923,-58.92
1310.938,-58.63
1310.953,-58.62
1310.968,-58.51
1310.983,-58.34
1310.998,-58.41
1311.013,-58.63
1311.028,-58.62
1311.043,-58.77
1311.058,-58.79
1311.073,-58.29
1311.088,-58.7
1311.103,-58.79
1311.118,-58.43
1311.133,-58.55
1311.148,-58.49
1311.163,-58.29
1311.178,-58.85
1311.193,-58.43
1311.208,-58.59
1311.223,-58.61
1311.238,-58.67
1311.253,-58.44
1311.268,-58.71
1311.283,-58.71
1311.298,-58.52
1311.313,-58.78
1311.328,-58.38
1311.343,-58.3
1311.358,-58.72
1311.373,-58.39
1311.388,-58.65
1311.403,-58.7
1311.418,-58.66
1311.433,-58.44
1311.448,-58.7
1311.463,-58.64
1311.478,-58.44
1311.493,-58.67
1311.508,-58.25
1311.523,-58.12
1311.538,-58.36
1311.553,-58.18
1311.568,-58.49
1311.583,-58.49
1311.598,-58.4
1311.613,-58.21
1311.628,-58.51
1311.643,-58.54
1311.658,-58.41
1311.673,-58.71
1311.688,-58.3
1311.703,-58.46
1311.718,-58.91
1311.733,-58.72
1311.748,-58.96
1311.763,-59.01
1311.778,-58.72
1311.793,-58.72
1311.808,-58.76
1311.823,-58.59
1311.838,-58.56
1311.853,-58.56
1311.868,-58.15
1311.883,-58.29
1311.898,-58.76
1311.913,-58.53
1311.928,-58.75
1311.943,-58.69
1311.958,-58.8
1311.973,-58.98
1311.988,-58.99
1312.003,-58.99
1312.018,-58.69
1312.033,-58.73
1312.048,-58.51
1312.063,-58.58
1312.078,-59.1
1312.093,-58.9
1312.108,-59.01
1312.123,-58.86
1312.138,-58.78
1312.153,-58.86
1312.168,-59.05
1312.183,-58.6
1312.198,-58.79
1312.213,-58.67
1312.228,-58.53
1312.243,-58.7
1312.258,-58.49
1312.273,-58.52
1312.288,-58.8
1312.303,-58.79
1312.318,-58.58
1312.333,-58.95
1312.348,-59.01
1312.363,-58.84
1312.378,-59.17
1312.393,-58.95
1312.408,-58.74
1312.423,-58.83
1312.438,-58.61
1312.453,-58.77
1312.468,-58.78
1312.483,-58.66
1312.498,-58.33
1312.513,-58.74
1312.528,-58.85
1312.543,-58.6
1312.558,-58.84
1312.573,-58.46
1312.588,-58.33
1312.603,-58.56
1312.618,-58.9
1312.633,-58.5
1312.648,-58.73
1312.663,-58.6
1312.678,-58.33
1312.693,-58.7
1312.708,-58.6
1312.723,-58.3
1312.738,-58.55
1312.753,-58.26
1312.768,-57.98
1312.783,-58.31
1312.798,-58.35
1312.813,-58.2
1312.828,-58.34
1312.843,-58.6
1312.858,-58.43
1312.873,-58.75
1312.888,-58.7
1312.903,-58.38
1312.918,-58.62
1312.933,-58.26
1312.948,-58.31
1312.963,-58.46
1312.978,-58.38
1312.993,-58.15
1313.008,-58.29
1313.023,-58.59
1313.038,-58.49
1313.053,-58.23
1313.068,-58.23
1313.083,-57.88
1313.098,-58.0
1313.113,-57.67
1313.128,-57.71
1313.143,-57.85
1313.158,-57.76
1313.173,-57.65
1313.188,-57.69
1313.203,-57.8
1313.218,-57.84
1313.233,-57.74
1313.248,-57.81
1313.263,-58.29
1313.278,-58.11
1313.293,-58.09
1313.308,-57.93
1313.323,-58.06
1313.338,-58.03
1313.353,-57.85
1313.368,-57.8
1313.383,-57.81
1313.398,-57.66
1313.413,-57.69
1313.428,-57.78
1313.443,-58.29
1313.458,-57.85
1313.473,-57.81
1313.488,-58.14
1313.503,-58.45
1313.518,-58.19
1313.533,-58.08
1313.548,-58.29
1313.563,-58.51
1313.578,-58.35
1313.593,-58.39
1313.608,-58.72
1313.623,-58.52
1313.638,-58.35
1313.653,-58.15
1313.668,-58.65
1313.683,-58.87
1313.698,-58.46
1313.713,-58.27
1313.728,-58.53
1313.743,-58.66
1313.758,-58.33
1313.773,-58.41
1313.788,-58.81
1313.803,-58.66
1313.818,-58.51
1313.833,-58.66
1313.848,-58.81
1313.863,-58.89
1313.878,-58.74
1313.893,-58.69
1313.908,-59.1
1313.923,-59.09
1313.938,-58.77
1313.953,-58.88
1313.968,-59.05
1313.983,-58.77
1313.998,-58.57
1314.013,-58.64
1314.028,-58.79
1314.043,-58.85
1314.058,-59.04
1314.073,-59.04
1314.088,-59.38
1314.103,-59.43
1314.118,-59.06
1314.133,-59.35
1314.148,-59.74
1314.163,-59.63
1314.178,-59.18
1314.193,-59.52
1314.208,-59.92
1314.223,-59.83
1314.238,-60.05
1314.253,-60.07
1314.268,-59.58
1314.283,-59.91
1314.298,-59.25
1314.313,-59.38
1314.328,-59.81
1314.343,-59.57
1314.358,-59.34
1314.373,-59.7
1314.388,-59.44
1314.403,-59.7
1314.418,-59.74
1314.433,-59.64
1314.448,-59.11
1314.463,-59.44
1314.478,-59.47
1314.493,-59.27
1314.508,-59.43
1314.523,-59.32
1314.538,-59.08
1314.553,-59.25
1314.568,-59.27
1314.583,-59.48
1314.598,-59.5
1314.613,-59.15
1314.628,-58.97
1314.643,-59.22
1314.658,-59.21
1314.673,-58.94
1314.688,-59.17
1314.703,-59.01
1314.718,-58.91
1314.733,-59.21
1314.748,-59.22
1314.763,-59.02
1314.778,-59.35
1314.793,-58.83
1314.808,-58.79
1314.823,-59.08
1314.838,-58.97
1314.853,-58.51
1314.868,-58.68
1314.883,-58.35
1314.898,-58.37
1314.913,-58.64
1314.928,-58.45
1314.943,-58.27
1314.958,-58.26
1314.973,-58.65
1314.988,-58.27
1315.003,-58.25
1315.018,-58.3
1315.033,-58.1
1315.048,-58.13
1315.063,-57.94
1315.078,-57.93
1315.093,-58.19
1315.108,-58.05
1315.123,-58.05
1315.138,-58.14
1315.153,-58.28
1315.168,-58.1
1315.183,-58.15
1315.198,-58.29
1315.213,-58.3
1315.228,-58.2
1315.243,-58.07
1315.258,-57.91
1315.273,-58.13
1315.288,-58.01
1315.303,-57.84
1315.318,-58.03
1315.333,-58.21
1315.348,-57.92
1315.363,-57.9
1315.378,-57.99
1315.393,-58.4
1315.408,-57.96
1315.423,-57.91
1315.438,-58.32
1315.453,-58.64
1315.468,-58.62
1315.483,-58.38
1315.498,-58.49
1315.513,-58.6
1315.528,-58.22
1315.543,-58.23
1315.558,-58.48
1315.573,-58.39
1315.588,-57.91
1315.603,-57.78
1315.618,-58.37
1315.633,-58.32
1315.648,-57.95
1315.663,-57.89
1315.678,-58.15
1315.693,-58.06
1315.708,-57.75
1315.723,-58.03
1315.738,-58.34
1315.753,-57.99
1315.768,-57.83
1315.783,-57.88
1315.798,-58.49
1315.813,-58.34
1315.828,-57.92
1315.843,-58.24
1315.858,-58.76
1315.873,-58.49
1315.888,-58.29
1315.903,-58.46
1315.918,-58.71
1315.933,-58.3
1315.948,-58.17
1315.963,-58.57
1315.978,-58.48
1315.993,-58.37
1316.008,-58.43
1316.023,-59.11
1316.038,-59.15
1316.053,-58.54
1316.068,-58.63
1316.083,-59.26
1316.098,-59.48
1316.113,-58.98
1316.128,-59.02
1316.143,-59.41
1316.158,-59.27
1316.173,-58.63
1316.188,-58.83
1316.203,-59.21
1316.218,-58.95
1316.233,-58.41
1316.248,-58.46
1316.263,-59.04
1316.278,-58.85
1316.293,-58.29
1316.308,-58.4
1316.323,-58.83
1316.338,-58.75
1316.353,-58.41
1316.368,-58.67
1316.383,-59.05
1316.398,-58.68
1316.413,-58.46
1316.428,-58.87
1316.443,-58.88
1316.458,-58.32
1316.473,-57.96
1316.488,-58.44
1316.503,-58.52
1316.518,-58.09
1316.533,-57.91
1316.548,-58.17
1316.563,-58.46
1316.578,-58.08
1316.593,-58.06
1316.608,-58.48
1316.623,-58.27
1316.638,-57.96
1316.653,-58.07
1316.668,-58.72
1316.683,-58.65
1316.698,-58.24
1316.713,-58.45
1316.728,-58.89
1316.743,-58.36
1316.758,-58.2
1316.773,-58.78
1316.788,-58.7
1316.803,-58.52
1316.818,-58.26
1316.833,-58.49
1316.848,-58.68
1316.863,-58.27
1316.878,-58.02
1316.893,-58.52
1316.908,-58.75
1316.923,-58.1
1316.938,-58.09
1316.953,-58.64
1316.968,-58.66
1316.983,-58.21
1316.998,-58.33
1317.013,-58.75
1317.028,-58.16
1317.043,-58.07
1317.058,-58.5
1317.073,-58.54
1317.088,-58.49
1317.103,-57.8
1317.118,-57.77
1317.133,-58.24
1317.148,-58.0
1317.163,-57.63
1317.178,-57.99
1317.193,-58.43
1317.208,-57.9
1317.224,-57.73
1317.238,-58.33
1317.253,-58.4
1317.268,-57.83
1317.283,-57.87
1317.298,-58.3
1317.313,-58.34
1317.328,-58.1
1317.344,-58.05
1317.359,-58.23
1317.373,-58.46
1317.388,-57.82
1317.403,-57.77
1317.418,-58.32
1317.433,-58.09
1317.448,-57.64
1317.464,-57.98
1317.479,-58.37
1317.494,-57.93
1317.509,-57.69
1317.523,-57.98
1317.538,-58.26
1317.553,-58.1
1317.568,-57.81
1317.583,-58.06
1317.599,-58.05
1317.614,-58.02
1317.629,-57.65
1317.644,-57.91
1317.658,-58.31
1317.673,-57.73
1317.688,-57.65
1317.703,-57.98
1317.719,-57.99
1317.734,-57.48
1317.749,-57.72
1317.764,-58.1
1317.779,-57.63
1317.794,-57.63
1317.808,-57.6
1317.823,-57.87
1317.839,-58.03
1317.854,-57.62
1317.869,-57.64
1317.884,-58.19
1317.899,-57.83
1317.914,-57.54
1317.929,-57.81
1317.944,-58.22
1317.958,-57.84
1317.974,-57.66
1317.989,-58.07
1318.004,-58.0
1318.019,-57.56
1318.034,-57.48
1318.049,-57.67
1318.064,-57.75
1318.079,-57.61
1318.094,-57.21
1318.109,-57.57
1318.124,-57.94
1318.139,-57.43
1318.154,-57.38
1318.169,-57.86
1318.184,-57.78
1318.199,-57.32
1318.214,-57.52
1318.229,-57.91
1318.244,-57.55
1318.259,-57.31
1318.274,-57.39
1318.289,-57.67
1318.304,-57.55
1318.319,-57.37
1318.334,-57.44
1318.349,-57.64
1318.364,-57.49
1318.379,-57.08
1318.394,-57.44
1318.409,-57.84
1318.424,-57.37
1318.439,-57.3
1318.454,-57.7
1318.469,-57.78
1318.484,-57.68
1318.499,-57.48
1318.514,-57.72
1318.529,-57.86
1318.544,-57.68
1318.559,-57.69
1318.574,-58.07
1318.589,-57.91
1318.604,-57.69
1318.619,-57.58
1318.634,-57.96
1318.649,-57.94
1318.664,-57.51
1318.679,-57.71
1318.694,-58.15
1318.709,-57.76
1318.724,-57.57
1318.739,-57.61
1318.754,-57.85
1318.769,-57.59
1318.784,-57.41
1318.799,-57.53
1318.814,-57.87
1318.829,-57.66
1318.844,-57.3
1318.859,-57.56
1318.874,-57.93
1318.889,-57.42
1318.904,-57.33
1318.919,-57.72
1318.934,-57.7
1318.949,-57.2
1318.964,-57.38
1318.979,-57.66
1318.994,-57.21
1319.009,-57.06
1319.024,-57.23
1319.039,-57.73
1319.054,-57.62
1319.069,-57.26
1319.084,-57.42
1319.099,-57.89
1319.114,-57.62
1319.129,-57.3
1319.144,-57.79
1319.159,-57.94
1319.174,-57.38
1319.189,-57.32
1319.204,-57.87
1319.219,-57.71
1319.234,-57.41
1319.249,-57.57
1319.264,-57.75
1319.279,-58.09
1319.294,-57.71
1319.309,-57.42
1319.324,-57.92
1319.339,-58.12
1319.354,-57.62
1319.369,-57.75
1319.384,-58.23
1319.399,-58.09
1319.414,-57.59
1319.429,-58.01
1319.444,-58.2
1319.459,-57.85
1319.474,-57.83
1319.489,-57.86
1319.504,-58.02
1319.519,-58.03
1319.534,-57.94
1319.549,-57.96
1319.564,-58.41
1319.579,-57.95
1319.594,-57.73
1319.609,-58.32
1319.624,-58.42
1319.639,-58.06
1319.654,-58.04
1319.669,-58.42
1319.684,-58.31
1319.699,-57.83
1319.714,-58.1
1319.729,-58.32
1319.744,-58.39
1319.759,-58.28
1319.774,-58.45
1319.789,-58.62
1319.804,-58.58
1319.819,-58.29
1319.834,-58.27
1319.849,-58.93
1319.864,-58.59
1319.879,-58.15
1319.894,-58.52
1319.909,-58.78
1319.924,-58.3
1319.939,-58.35
1319.954,-58.97
1319.969,-58.77
1319.984,-58.48
1319.999,-58.95
1320.014,-59.1
1320.029,-58.93
1320.044,-58.76
1320.059,-59.16
1320.074,-59.23
1320.089,-59.01
1320.104,-58.44
1320.119,-58.81
1320.134,-59.2
1320.149,-58.54
1320.164,-58.27
1320.179,-58.84
1320.194,-59.04
1320.209,-58.38
1320.224,-58.61
1320.239,-59.11
1320.254,-58.88
1320.269,-58.62
1320.284,-58.62
1320.299,-58.87
1320.314,-58.86
1320.329,-58.57
1320.344,-58.9
1320.359,-58.91
1320.374,-58.64
1320.389,-58.26
1320.404,-58.6
1320.419,-58.95
1320.434,-58.49
1320.449,-58.38
1320.464,-59.0
1320.479,-58.76
1320.494,-58.23
1320.509,-58.31
1320.524,-58.79
1320.539,-58.4
1320.554,-58.18
1320.569,-58.21
1320.584,-58.34
1320.599,-58.36
1320.614,-58.06
1320.629,-58.3
1320.644,-58.31
1320.659,-58.32
1320.674,-58.29
1320.689,-58.47
1320.704,-58.41
1320.719,-58.15
1320.734,-58.01
1320.749,-58.36
1320.764,-58.49
1320.779,-57.88
1320.794,-57.86
1320.809,-58.29
1320.824,-58.0
1320.839,-57.88
1320.854,-57.75
1320.869,-57.92
1320.884,-57.84
1320.899,-57.77
1320.914,-58.0
1320.929,-58.01
1320.944,-57.89
1320.959,-57.74
1320.974,-57.87
1320.989,-57.68
1321.004,-57.52
1321.019,-57.79
1321.034,-58.0
1321.049,-57.72
1321.064,-57.53
1321.079,-57.74
1321.094,-58.06
1321.109,-58.1
1321.124,-57.79
1321.139,-57.81
1321.154,-58.09
1321.169,-58.02
1321.184,-57.91
1321.199,-58.14
1321.214,-58.1
1321.229,-57.87
1321.244,-57.95
1321.259,-58.05
1321.274,-58.01
1321.289,-57.76
1321.304,-57.93
1321.319,-58.02
1321.334,-57.87
1321.349,-57.7
1321.364,-57.95
1321.379,-57.88
1321.394,-58.05
1321.409,-58.11
1321.424,-57.92
1321.439,-57.85
1321.454,-57.9
1321.469,-57.46
1321.484,-57.76
1321.499,-57.86
1321.514,-57.7
1321.529,-57.57
1321.544,-57.88
1321.559,-57.88
1321.574,-57.66
1321.589,-57.87
1321.604,-57.95
1321.619,-57.93
1321.634,-57.65
1321.649,-58.08
1321.664,-57.94
1321.679,-57.74
1321.694,-57.77
1321.709,-57.87
1321.724,-57.85
1321.739,-57.93
1321.754,-57.59
1321.769,-57.79
1321.784,-57.9
1321.799,-57.87
1321.814,-57.8
1321.829,-58.06
1321.844,-58.05
1321.859,-57.89
1321.874,-58.0
1321.889,-58.17
1321.904,-58.02
1321.919,-57.87
1321.934,-58.01
1321.949,-58.03
1321.964,-58.04
1321.979,-58.07
1321.994,-58.14
1322.009,-58.06
1322.024,-57.96
1322.039,-57.88
1322.054,-58.34
1322.069,-58.17
1322.084,-57.87
1322.099,-57.71
1322.114,-57.86
1322.129,-57.91
1322.144,-57.89
1322.159,-57.92
1322.174,-57.95
1322.189,-57.86
1322.204,-57.76
1322.219,-58.01
1322.234,-58.06
1322.249,-57.8
1322.264,-57.88
1322.279,-57.87
1322.294,-57.91
1322.309,-57.46
1322.324,-57.39
1322.339,-57.93
1322.354,-57.7
1322.369,-57.3
1322.384,-57.66
1322.399,-57.85
1322.414,-57.41
1322.429,-57.42
1322.444,-57.84
1322.459,-57.81
1322.474,-57.68
1322.489,-57.53
1322.504,-57.82
1322.519,-57.82
1322.534,-57.68
1322.549,-57.77
1322.564,-57.85
1322.579,-57.66
1322.594,-57.49
1322.609,-57.42
1322.624,-57.86
1322.639,-57.71
1322.654,-57.24
1322.669,-57.52
1322.684,-57.85
1322.699,-57.4
1322.714,-57.31
1322.729,-57.74
1322.744,-57.73
1322.759,-57.75
1322.774,-57.58
1322.789,-57.84
1322.804,-57.85
1322.819,-57.68
1322.834,-57.64
1322.849,-57.83
1322.864,-57.77
1322.879,-57.52
1322.894,-57.76
1322.909,-57.88
1322.924,-57.56
1322.939,-57.55
1322.954,-57.8
1322.969,-57.56
1322.984,-57.19
1322.999,-57.14
1323.014,-57.68
1323.029,-57.52
1323.044,-57.38
1323.059,-57.26
1323.074,-57.62
1323.089,-57.56
1323.104,-57.42
1323.119,-57.52
1323.134,-57.8
1323.149,-57.68
1323.164,-57.41
1323.179,-57.73
1323.194,-57.92
1323.209,-57.57
1323.224,-57.37
1323.239,-57.63
1323.254,-57.63
1323.269,-57.24
1323.284,-57.53
1323.299,-57.62
1323.314,-57.64
1323.329,-57.83
1323.344,-57.81
1323.359,-57.76
1323.374,-57.93
1323.389,-57.58
1323.404,-57.62
1323.419,-57.92
1323.434,-57.91
1323.449,-57.65
1323.464,-57.83
1323.479,-58.19
1323.494,-57.97
1323.509,-57.84
1323.524,-58.14
1323.539,-58.04
1323.554,-57.6
1323.569,-57.81
1323.584,-57.99
1323.599,-57.8
1323.614,-58.22
1323.629,-57.92
1323.644,-57.8
1323.659,-57.97
1323.674,-58.09
1323.689,-57.85
1323.704,-57.79
1323.719,-58.14
1323.734,-58.17
1323.749,-58.32
1323.764,-58.39
1323.779,-58.37
1323.794,-58.38
1323.809,-58.43
1323.824,-58.35
1323.839,-58.2
1323.854,-58.35
1323.869,-58.41
1323.884,-58.32
1323.899,-58.27
1323.914,-58.48
1323.929,-58.48
1323.944,-58.42
1323.959,-58.53
1323.974,-58.64
1323.989,-58.67
1324.004,-59.06
1324.019,-59.01
1324.034,-58.7
1324.049,-58.8
1324.064,-59.32
1324.079,-58.78
1324.094,-58.61
1324.109,-58.95
1324.124,-59.08
1324.139,-59.05
1324.154,-59.01
1324.169,-58.97
1324.184,-58.9
1324.199,-58.91
1324.214,-58.9
1324.229,-58.83
1324.244,-59.05
1324.259,-58.96
1324.274,-59.05
1324.289,-59.05
1324.304,-59.16
1324.319,-59.15
1324.334,-59.08
1324.349,-59.07
1324.364,-59.09
1324.379,-58.87
1324.394,-59.26
1324.409,-59.48
1324.424,-58.97
1324.439,-58.92
1324.454,-59.48
1324.469,-59.16
1324.484,-58.68
1324.499,-59.09
1324.514,-58.87
1324.529,-58.86
1324.544,-59.17
1324.559,-59.17
1324.574,-59.09
1324.589,-59.37
1324.604,-59.46
1324.619,-59.04
1324.634,-59.14
1324.649,-59.38
1324.664,-59.31
1324.679,-59.19
1324.694,-59.55
1324.709,-59.76
1324.724,-59.49
1324.739,-59.39
1324.754,-58.99
1324.769,-58.82
1324.784,-58.86
1324.799,-58.8
1324.814,-58.71
1324.829,-58.6
1324.844,-59.05
1324.859,-58.85
1324.874,-58.54
1324.889,-58.71
1324.904,-58.33
1324.919,-58.44
1324.934,-58.69
1324.949,-58.49
1324.964,-58.32
1324.979,-58.57
1324.994,-58.67
1325.009,-58.54
1325.024,-58.56
1325.039,-58.68
1325.054,-58.78
1325.069,-58.36
1325.084,-58.52
1325.099,-58.65
1325.114,-58.48
1325.129,-58.52
1325.144,-58.27
1325.159,-58.05
1325.174,-58.28
1325.189,-58.57
1325.204,-58.11
1325.219,-58.08
1325.234,-58.64
1325.25,-58.48
1325.264,-58.26
1325.279,-58.57
1325.294,-58.37
1325.309,-58.46
1325.324,-58.59
1325.339,-58.47
1325.354,-58.43
1325.37,-58.52
1325.385,-58.44
1325.4,-58.34
1325.414,-58.35
1325.429,-58.41
1325.444,-58.4
1325.459,-58.13
1325.474,-58.24
1325.49,-58.3
1325.505,-58.06
1325.52,-58.61
1325.535,-58.35
1325.549,-57.97
1325.564,-58.27
1325.579,-58.44
1325.594,-58.06
1325.609,-58.02
1325.625,-58.43
1325.64,-58.48
1325.655,-58.08
1325.67,-58.17
1325.685,-58.55
1325.699,-58.0
1325.714,-57.82
1325.729,-57.76
1325.745,-57.74
1325.76,-57.84
1325.775,-57.82
1325.79,-57.8
1325.805,-57.81
1325.82,-57.78
1325.834,-57.87
1325.849,-57.72
1325.865,-57.91
1325.88,-58.03
1325.895,-57.93
1325.91,-58.42
1325.925,-58.37
1325.94,-57.92
1325.955,-58.14
1325.97,-58.44
1325.984,-58.16
1326.0,-57.82
1326.015,-58.17
1326.03,-58.16
1326.045,-57.8
1326.06,-57.73
1326.075,-58.05
1326.09,-57.93
1326.105,-57.67
1326.12,-57.98
1326.135,-58.13
1326.15,-57.92
1326.165,-58.02
1326.18,-58.33
1326.195,-58.05
1326.21,-57.87
1326.225,-58.12
1326.24,-58.41
1326.255,-57.88
1326.27,-57.89
1326.285,-58.09
1326.3,-58.24
1326.315,-57.82
1326.33,-57.54
1326.345,-57.77
1326.36,-58.02
1326.375,-57.71
1326.39,-57.65
1326.405,-57.94
1326.42,-57.96
1326.435,-57.67
1326.45,-57.77
1326.465,-58.03
1326.48,-57.89
1326.495,-57.74
1326.51,-58.01
1326.525,-58.12
1326.54,-57.78
1326.555,-57.87
1326.57,-58.18
1326.585,-58.02
1326.6,-57.75
1326.615,-57.89
1326.63,-58.02
1326.645,-57.6
1326.66,-57.57
1326.675,-57.87
1326.69,-57.86
1326.705,-57.77
1326.72,-57.84
1326.735,-58.37
1326.75,-58.45
1326.765,-57.96
1326.78,-58.13
1326.795,-58.85
1326.81,-58.61
1326.825,-58.3
1326.84,-58.75
1326.855,-59.09
1326.87,-58.34
1326.885,-58.19
1326.9,-58.73
1326.915,-58.66
1326.93,-58.03
1326.945,-58.21
1326.96,-58.4
1326.975,-58.41
1326.99,-58.03
1327.005,-58.3
1327.02,-58.51
1327.035,-58.28
1327.05,-58.21
1327.065,-58.41
1327.08,-58.62
1327.095,-58.21
1327.11,-58.28
1327.125,-58.55
1327.14,-58.45
1327.155,-58.2
1327.17,-58.33
1327.185,-58.53
1327.2,-58.33
1327.215,-58.28
1327.23,-58.54
1327.245,-58.34
1327.26,-58.23
1327.275,-58.19
1327.29,-58.26
1327.305,-58.29
1327.32,-58.16
1327.335,-58.26
1327.35,-58.75
1327.365,-58.26
1327.38,-58.1
1327.395,-58.49
1327.41,-58.82
1327.425,-58.29
1327.44,-58.41
1327.455,-59.03
1327.47,-58.78
1327.485,-58.25
1327.5,-58.55
1327.515,-58.97
1327.53,-58.32
1327.545,-58.26
1327.56,-58.71
1327.575,-58.62
1327.59,-58.58
1327.605,-58.55
1327.62,-58.67
1327.635,-58.83
1327.65,-58.67
1327.665,-58.7
1327.68,-58.8
1327.695,-58.77
1327.71,-58.59
1327.725,-58.54
1327.74,-58.62
1327.755,-58.39
1327.77,-58.36
1327.785,-58.39
1327.8,-58.31
1327.815,-58.12
1327.83,-58.12
1327.845,-57.99
1327.86,-57.96
1327.875,-57.91
1327.89,-58.06
1327.905,-58.2
1327.92,-58.0
1327.935,-58.01
1327.95,-58.2
1327.965,-58.66
1327.98,-58.19
1327.995,-58.16
1328.01,-58.67
1328.025,-58.43
1328.04,-58.02
1328.055,-58.27
1328.07,-58.86
1328.085,-58.3
1328.1,-58.17
1328.115,-58.72
1328.13,-58.8
1328.145,-58.25
1328.16,-58.47
1328.175,-59.1
1328.19,-59.01
1328.205,-58.92
1328.22,-58.9
1328.235,-59.23
1328.25,-59.18
1328.265,-59.0
1328.28,-59.12
1328.295,-59.32
1328.31,-59.19
1328.325,-59.13
1328.34,-59.61
1328.355,-59.51
1328.37,-59.34
1328.385,-59.36
1328.4,-59.64
1328.415,-59.25
1328.43,-59.19
1328.445,-59.3
1328.46,-59.28
1328.475,-58.89
1328.49,-59.02
1328.505,-59.37
1328.52,-59.22
1328.535,-58.96
1328.55,-59.25
1328.565,-59.48
1328.58,-59.3
1328.595,-58.75
1328.61,-59.05
1328.625,-59.66
1328.64,-59.05
1328.655,-58.94
1328.67,-59.56
1328.685,-59.76
1328.7,-58.86
1328.715,-59.25
1328.73,-60.02
1328.745,-59.43
1328.76,-59.23
1328.775,-59.62
1328.79,-59.91
1328.805,-59.54
1328.82,-59.36
1328.835,-59.56
1328.85,-59.97
1328.865,-59.41
1328.88,-59.48
1328.895,-59.89
1328.91,-59.63
1328.925,-59.15
1328.94,-59.4
1328.955,-60.03
1328.97,-59.51
1328.985,-59.28
1329.0,-59.62
1329.015,-59.57
1329.03,-59.05
1329.045,-59.19
1329.06,-59.48
1329.075,-59.15
1329.09,-58.8
1329.105,-59.14
1329.12,-59.34
1329.135,-58.91
1329.15,-58.93
1329.165,-59.0
1329.18,-58.84
1329.195,-58.35
1329.21,-58.08
1329.225,-58.66
1329.24,-58.6
1329.255,-58.0
1329.27,-58.17
1329.285,-58.78
1329.3,-58.28
1329.315,-57.96
1329.33,-58.35
1329.345,-58.35
1329.36,-57.75
1329.375,-57.83
1329.39,-58.42
1329.405,-58.29
1329.42,-58.19
1329.435,-58.07
1329.45,-58.33
1329.465,-58.27
1329.48,-58.14
1329.495,-58.27
1329.51,-58.5
1329.525,-58.24
1329.54,-58.12
1329.555,-58.41
1329.57,-58.4
1329.585,-58.08
1329.6,-58.23
1329.615,-58.58
1329.63,-58.14
1329.645,-58.02
1329.66,-58.27
1329.675,-58.3
1329.69,-57.82
1329.705,-57.96
1329.72,-58.09
1329.735,-57.94
1329.75,-57.73
1329.765,-57.91
1329.78,-58.14
1329.795,-57.97
1329.81,-57.65
1329.825,-57.85
1329.84,-58.2
1329.855,-57.71
1329.87,-57.74
1329.885,-58.25
1329.9,-58.21
1329.915,-57.66
1329.93,-57.89
1329.945,-58.38
1329.96,-57.87
1329.975,-57.51
1329.99,-57.9
1330.005,-58.13
1330.02,-57.61
1330.035,-57.82
1330.05,-58.38
1330.065,-58.14
1330.08,-57.7
1330.095,-58.09
1330.11,-58.45
1330.125,-57.82
1330.14,-57.81
1330.155,-58.33
1330.17,-58.31
1330.185,-57.86
1330.2,-58.01
1330.215,-58.46
1330.23,-57.95
1330.245,-57.67
1330.26,-58.14
1330.275,-58.21
1330.29,-57.64
1330.305,-57.89
1330.32,-58.39
1330.335,-57.97
1330.35,-57.63
1330.365,-58.07
1330.38,-58.35
1330.395,-57.91
1330.41,-57.67
1330.425,-57.84
1330.44,-57.97
1330.455,-57.85
1330.47,-57.73
1330.485,-57.93
1330.5,-57.89
1330.515,-57.73
1330.53,-57.88
1330.545,-57.98
1330.56,-57.72
1330.575,-57.5
1330.59,-57.77
1330.605,-57.66
1330.62,-57.35
1330.635,-57.28
1330.65,-57.63
1330.665,-57.72
1330.68,-57.25
1330.695,-57.35
1330.71,-57.78
1330.725,-57.55
1330.74,-57.23
1330.755,-57.57
1330.77,-57.71
1330.785,-57.34
1330.8,-57.48
1330.815,-57.86
1330.83,-57.79
1330.845,-57.41
1330.86,-57.98
1330.875,-58.2
1330.89,-57.66
1330.905,-57.65
1330.92,-58.17
1330.935,-58.09
1330.95,-57.62
1330.965,-57.88
1330.98,-58.44
1330.995,-58.01
1331.01,-57.8
1331.025,-58.2
1331.04,-58.28
1331.055,-57.67
1331.07,-57.83
1331.085,-58.24
1331.1,-58.09
1331.115,-57.69
1331.13,-58.1
1331.145,-58.22
1331.16,-57.71
1331.175,-57.69
1331.19,-58.12
1331.205,-57.89
1331.22,-57.49
1331.235,-57.75
1331.25,-58.06
1331.265,-58.07
1331.28,-57.7
1331.295,-57.82
1331.31,-58.16
1331.325,-57.85
1331.34,-57.79
1331.355,-58.07
1331.37,-58.34
1331.385,-58.0
1331.4,-57.88
1331.415,-58.38
1331.43,-58.26
1331.445,-58.05
1331.46,-58.16
1331.475,-58.39
1331.49,-57.93
1331.505,-57.97
1331.52,-58.22
1331.535,-57.99
1331.55,-57.68
1331.565,-57.91
1331.58,-58.23
1331.595,-57.94
1331.61,-57.95
1331.625,-58.0
1331.64,-58.52
1331.655,-58.18
1331.67,-57.92
1331.685,-58.41
1331.7,-58.58
1331.715,-58.13
1331.73,-58.09
1331.745,-58.64
1331.76,-58.37
1331.775,-58.01
1331.79,-58.4
1331.805,-58.56
1331.82,-58.0
1331.835,-57.98
1331.85,-58.54
1331.865,-58.12
1331.88,-57.69
1331.895,-57.95
1331.91,-58.1
1331.925,-57.65
1331.94,-57.48
1331.955,-57.9
1331.97,-57.87
1331.985,-57.43
1332.0,-57.58
1332.015,-58.07
1332.03,-57.76
1332.045,-57.5
1332.06,-57.94
1332.075,-58.14
1332.09,-57.6
1332.105,-57.61
1332.12,-57.98
1332.135,-57.73
1332.15,-57.49
1332.165,-57.83
1332.18,-57.96
1332.195,-57.51
1332.21,-57.57
1332.225,-58.0
1332.24,-57.95
1332.255,-57.61
1332.27,-57.49
1332.285,-57.8
1332.3,-57.91
1332.315,-57.61
1332.33,-57.62
1332.345,-57.89
1332.36,-57.73
1332.375,-57.37
1332.39,-57.74
1332.405,-58.18
1332.42,-57.96
1332.435,-57.48
1332.45,-57.84
1332.465,-58.21
1332.48,-57.62
1332.495,-57.65
1332.51,-58.17
1332.525,-58.19
1332.54,-57.8
1332.555,-57.95
1332.57,-58.43
1332.585,-58.12
1332.6,-57.86
1332.615,-58.17
1332.63,-58.57
1332.645,-57.97
1332.66,-58.07
1332.675,-58.5
1332.69,-58.19
1332.705,-57.88
1332.72,-57.97
1332.735,-58.55
1332.75,-57.9
1332.765,-57.73
1332.78,-58.3
1332.795,-58.27
1332.81,-57.7
1332.825,-57.79
1332.84,-58.32
1332.855,-57.93
1332.87,-57.67
1332.885,-57.94
1332.9,-58.4
1332.915,-57.95
1332.93,-57.93
1332.945,-58.54
1332.96,-58.5
1332.975,-58.18
1332.99,-58.35
1333.005,-58.88
1333.02,-58.12
1333.035,-57.9
1333.05,-58.29
1333.065,-58.45
1333.08,-57.75
1333.095,-57.85
1333.11,-58.27
1333.125,-57.97
1333.141,-57.73
1333.155,-58.02
1333.17,-58.13
1333.185,-57.81
1333.2,-57.84
1333.215,-58.34
1333.23,-58.21
1333.245,-57.92
1333.26,-58.34
1333.276,-58.63
1333.29,-58.28
1333.305,-58.18
1333.32,-58.57
1333.335,-58.71
1333.35,-58.18
1333.365,-58.27
1333.38,-58.76
1333.396,-58.32
1333.411,-57.82
1333.426,-57.74
1333.44,-58.15
1333.455,-57.82
1333.47,-57.46
1333.485,-57.77
1333.5,-57.9
1333.516,-57.58
1333.531,-57.51
1333.546,-57.79
1333.561,-57.8
1333.575,-57.52
1333.59,-57.63
1333.605,-57.85
1333.62,-57.57
1333.635,-57.21
1333.651,-57.66
1333.666,-57.57
1333.681,-57.25
1333.696,-57.36
1333.711,-57.49
1333.725,-57.5
1333.74,-57.12
1333.755,-57.45
1333.771,-57.71
1333.786,-57.4
1333.801,-57.33
1333.816,-57.72
1333.831,-57.86
1333.846,-57.51
1333.86,-57.71
1333.875,-57.97
1333.891,-57.91
1333.906,-57.47
1333.921,-57.9
1333.936,-57.94
1333.951,-57.6
1333.966,-57.56
1333.981,-57.75
1333.996,-57.65
1334.01,-57.23
1334.026,-57.66
1334.041,-57.81
1334.056,-57.67
1334.071,-57.49
1334.086,-57.88
1334.101,-57.82
1334.116,-57.52
1334.131,-57.77
1334.146,-58.02
1334.161,-57.95
1334.176,-57.79
1334.191,-58.27
1334.206,-58.17
1334.221,-57.84
1334.236,-57.95
1334.251,-58.19
1334.266,-57.88
1334.281,-57.6
1334.296,-57.81
1334.311,-57.9
1334.326,-57.63
1334.341,-57.46
1334.356,-57.83
1334.371,-57.78
1334.386,-57.52
1334.401,-57.77
1334.416,-58.02
1334.431,-57.78
1334.446,-57.73
1334.461,-58.18
1334.476,-58.23
1334.491,-57.92
1334.506,-58.19
1334.521,-58.57
1334.536,-58.18
1334.551,-57.92
1334.566,-58.31
1334.581,-58.4
1334.596,-58.06
1334.611,-58.1
1334.626,-58.49
1334.641,-58.58
1334.656,-58.18
1334.671,-58.49
1334.686,-58.77
1334.701,-58.48
1334.716,-58.47
1334.731,-58.95
1334.746,-58.92
1334.761,-58.8
1334.776,-59.23
1334.791,-59.46
1334.806,-59.14
1334.821,-58.82
1334.836,-59.24
1334.851,-59.09
1334.866,-58.61
1334.881,-58.66
1334.896,-58.92
1334.911,-58.77
1334.926,-58.34
1334.941,-58.76
1334.956,-58.64
1334.971,-58.36
1334.986,-58.41
1335.001,-58.75
1335.016,-58.81
1335.031,-58.34
1335.046,-58.63
1335.061,-58.77
1335.076,-58.43
1335.091,-58.42
1335.106,-58.9
1335.121,-58.88
1335.136,-58.52
1335.151,-58.65
1335.166,-58.84
1335.181,-58.57
1335.196,-58.04
1335.211,-58.53
1335.226,-58.63
1335.241,-58.21
1335.256,-58.21
1335.271,-58.59
1335.286,-58.52
1335.301,-58.11
1335.316,-58.44
1335.331,-58.57
1335.346,-58.35
1335.361,-58.12
1335.376,-58.57
1335.391,-58.5
1335.406,-58.2
1335.421,-58.11
1335.436,-58.22
1335.451,-58.21
1335.466,-58.16
1335.481,-57.91
1335.496,-58.04
1335.511,-58.11
1335.526,-58.0
1335.541,-58.02
1335.556,-58.11
1335.571,-58.17
1335.586,-58.03
1335.601,-58.01
1335.616,-58.0
1335.631,-57.98
1335.646,-57.95
1335.661,-58.04
1335.676,-58.13
1335.691,-58.05
1335.706,-57.91
1335.721,-57.98
1335.736,-57.92
1335.751,-57.94
1335.766,-57.79
1335.781,-57.54
1335.796,-57.49
1335.811,-57.42
1335.826,-57.47
1335.841,-57.44
1335.856,-57.38
1335.871,-57.39
1335.886,-57.52
1335.901,-57.46
1335.916,-57.51
1335.931,-57.66
1335.946,-57.53
1335.961,-57.62
1335.976,-57.7
1335.991,-57.85
1336.006,-57.92
1336.021,-57.88
1336.036,-58.01
1336.051,-57.97
1336.066,-57.83
1336.081,-57.87
1336.096,-57.83
1336.111,-57.88
1336.126,-57.8
1336.141,-57.88
1336.156,-57.82
1336.171,-57.83
1336.186,-57.87
1336.201,-58.08
1336.216,-58.11
1336.231,-57.98
1336.246,-58.09
1336.261,-58.14
1336.276,-58.17
1336.291,-58.04
1336.306,-58.14
1336.321,-58.18
1336.336,-58.13
1336.351,-58.1
1336.366,-58.23
1336.381,-58.15
1336.396,-58.2
1336.411,-58.1
1336.426,-58.38
1336.441,-58.55
1336.456,-58.43
1336.471,-58.1
1336.486,-58.58
1336.501,-58.63
1336.516,-58.24
1336.531,-58.19
1336.546,-58.46
1336.561,-58.43
1336.576,-58.14
1336.591,-58.34
1336.606,-58.5
1336.621,-58.31
1336.636,-58.18
1336.651,-58.4
1336.666,-58.36
1336.681,-57.99
1336.696,-58.11
1336.711,-58.27
1336.726,-58.17
1336.741,-58.02
1336.756,-58.37
1336.771,-58.45
1336.786,-58.25
1336.801,-58.24
1336.816,-58.57
1336.831,-58.47
1336.846,-58.22
1336.861,-58.58
1336.876,-58.88
1336.891,-58.56
1336.906,-58.48
1336.921,-58.85
1336.936,-58.71
1336.951,-58.31
1336.966,-58.49
1336.981,-58.63
1336.996,-58.19
1337.011,-57.86
1337.026,-58.07
1337.041,-57.97
1337.056,-57.72
1337.071,-57.86
1337.086,-58.16
1337.101,-58.04
1337.116,-57.52
1337.131,-57.9
1337.146,-58.07
1337.161,-57.88
1337.176,-57.81
1337.191,-58.16
1337.206,-58.15
1337.221,-57.86
1337.236,-58.18
1337.251,-58.39
1337.266,-58.15
1337.281,-57.79
1337.296,-58.18
1337.311,-58.33
1337.326,-57.91
1337.341,-57.98
1337.356,-58.3
1337.371,-58.07
1337.386,-57.83
1337.401,-58.19
1337.416,-58.36
1337.431,-57.88
1337.446,-57.89
1337.461,-58.35
1337.476,-58.29
1337.491,-57.91
1337.506,-58.31
1337.521,-58.59
1337.536,-58.16
1337.551,-58.04
1337.566,-58.4
1337.581,-58.37
1337.596,-57.86
1337.611,-58.02
1337.626,-58.37
1337.641,-58.07
1337.656,-57.97
1337.671,-58.38
1337.686,-58.6
1337.701,-58.26
1337.716,-58.39
1337.731,-58.7
1337.746,-58.35
1337.761,-58.01
1337.776,-58.31
1337.791,-58.57
1337.806,-58.23
1337.821,-58.21
1337.836,-58.62
1337.851,-58.58
1337.866,-58.04
1337.881,-58.2
1337.896,-58.41
1337.911,-58.09
1337.926,-57.87
1337.941,-58.36
1337.956,-58.4
1337.971,-58.0
1337.986,-58.24
1338.001,-58.63
1338.016,-58.34
1338.031,-58.18
1338.046,-58.67
1338.061,-58.81
1338.076,-58.39
1338.091,-58.5
1338.106,-58.83
1338.121,-58.83
1338.136,-58.46
1338.151,-58.33
1338.166,-58.3
1338.181,-58.42
1338.196,-58.27
1338.211,-58.12
1338.226,-58.07
1338.241,-58.07
1338.256,-57.97
1338.271,-57.95
1338.286,-58.15
1338.301,-58.2
1338.316,-58.05
1338.331,-58.1
1338.346,-58.19
1338.361,-58.13
1338.376,-58.17
1338.391,-58.35
1338.406,-58.35
1338.421,-58.09
1338.436,-58.25
1338.451,-58.23
1338.466,-58.15
1338.481,-57.91
1338.496,-57.93
1338.511,-57.96
1338.526,-57.74
1338.541,-57.74
1338.556,-57.85
1338.571,-57.83
1338.586,-57.71
1338.601,-57.82
1338.616,-58.06
1338.631,-57.88
1338.646,-57.85
1338.661,-57.98
1338.676,-58.03
1338.691,-57.78
1338.706,-57.71
1338.721,-57.83
1338.736,-57.75
1338.751,-57.94
1338.766,-57.95
1338.781,-58.0
1338.796,-57.76
1338.811,-57.72
1338.826,-57.53
1338.841,-57.54
1338.856,-57.45
1338.871,-57.6
1338.886,-57.64
1338.901,-57.51
1338.916,-57.45
1338.931,-57.57
1338.946,-57.52
1338.961,-57.36
1338.976,-57.51
1338.991,-57.58
1339.006,-57.51
1339.021,-57.56
1339.036,-57.61
1339.051,-57.65
1339.066,-57.43
1339.081,-57.44
1339.096,-57.43
1339.111,-57.31
1339.126,-57.33
1339.141,-57.73
1339.156,-57.61
1339.171,-57.72
1339.186,-57.75
1339.201,-57.83
1339.216,-57.72
1339.231,-57.93
1339.246,-57.96
1339.261,-57.77
1339.276,-57.8
1339.291,-57.94
1339.306,-57.87
1339.321,-57.77
1339.336,-57.87
1339.351,-58.01
1339.366,-57.75
1339.381,-57.58
1339.396,-57.54
1339.411,-57.49
1339.426,-57.39
1339.441,-57.34
1339.456,-57.6
1339.471,-57.53
1339.486,-57.46
1339.501,-57.53
1339.516,-57.6
1339.531,-57.53
1339.546,-57.5
1339.561,-57.63
1339.576,-57.7
1339.591,-57.64
1339.606,-57.75
1339.621,-57.74
1339.636,-57.67
1339.651,-57.63
1339.666,-57.73
1339.681,-57.7
1339.696,-57.65
1339.711,-57.71
1339.726,-57.63
1339.741,-57.58
1339.756,-57.32
1339.771,-57.5
1339.786,-57.51
1339.801,-57.49
1339.816,-57.41
1339.831,-57.6
1339.846,-57.78
1339.861,-57.76
1339.876,-58.09
1339.891,-57.84
1339.906,-57.69
1339.921,-58.07
1339.936,-58.61
1339.951,-57.93
1339.966,-57.8
1339.981,-58.24
1339.996,-58.07
1340.011,-57.72
1340.026,-57.92
1340.041,-58.45
1340.056,-57.95
1340.071,-57.73
1340.086,-58.02
1340.101,-58.23
1340.116,-57.81
1340.131,-57.93
1340.146,-57.83
1340.161,-57.84
1340.176,-57.82
1340.191,-57.92
1340.206,-57.91
1340.221,-57.9
1340.236,-58.01
1340.251,-57.88
1340.266,-58.13
1340.281,-58.0
1340.296,-58.04
1340.311,-58.12
1340.326,-58.02
1340.341,-58.02
1340.356,-57.98
1340.371,-58.06
1340.386,-58.01
1340.401,-58.27
1340.416,-58.3
1340.431,-58.29
1340.446,-58.39
1340.461,-58.25
1340.476,-58.22
1340.491,-58.2
1340.506,-58.42
1340.521,-58.55
1340.536,-58.52
1340.551,-58.55
1340.566,-58.98
1340.581,-58.45
1340.596,-58.23
1340.611,-58.77
1340.626,-58.47
1340.641,-57.98
1340.656,-58.3
1340.671,-58.74
1340.686,-58.22
1340.701,-57.97
1340.716,-58.41
1340.731,-58.64
1340.746,-58.19
1340.761,-58.48
1340.776,-59.01
1340.791,-58.6
1340.806,-58.25
1340.821,-58.62
1340.836,-59.25
1340.851,-58.52
1340.866,-58.47
1340.881,-58.51
1340.896,-58.51
1340.911,-58.44
1340.926,-58.51
1340.941,-58.27
1340.956,-58.16
1340.971,-58.58
1340.986,-58.4
1341.001,-58.01
1341.016,-58.38
1341.031,-58.73
1341.046,-57.99
1341.061,-58.0
1341.076,-58.6
1341.091,-58.77
1341.106,-58.25
1341.121,-58.35
1341.136,-59.01
1341.151,-58.63
1341.167,-58.44
1341.181,-58.97
1341.196,-59.22
1341.211,-58.48
1341.226,-58.59
1341.241,-58.93
1341.256,-58.85
1341.271,-58.24
1341.286,-58.52
1341.302,-58.89
1341.316,-58.28
1341.331,-58.28
1341.346,-58.8
1341.361,-58.69
1341.376,-58.25
1341.391,-58.51
1341.406,-58.46
1341.422,-58.08
1341.437,-58.29
1341.452,-58.57
1341.466,-58.49
1341.481,-58.11
1341.496,-58.66
1341.511,-58.65
1341.526,-58.09
1341.542,-58.03
1341.557,-58.54
1341.572,-57.96
1341.587,-57.99
1341.601,-58.6
1341.616,-58.3
1341.631,-57.99
1341.646,-58.37
1341.661,-58.84
1341.677,-58.33
1341.692,-58.31
1341.707,-58.89
1341.722,-58.87
1341.737,-58.34
1341.751,-58.51
1341.766,-59.1
1341.781,-58.5
1341.797,-58.25
1341.812,-58.55
1341.827,-58.86
1341.842,-58.22
1341.857,-58.28
1341.872,-58.81
1341.887,-58.53
1341.901,-58.12
1341.917,-58.38
1341.932,-58.8
1341.947,-58.28
1341.962,-58.27
1341.977,-58.43
1341.992,-58.46
1342.007,-58.54
1342.022,-58.49
1342.036,-58.49
1342.052,-58.65
1342.067,-59.02
1342.082,-59.04
1342.097,-58.53
1342.112,-58.56
1342.127,-59.09
1342.142,-58.57
1342.157,-58.38
1342.172,-58.72
1342.187,-58.77
1342.202,-58.15
1342.217,-58.29
1342.232,-58.6
1342.247,-58.51
1342.262,-58.19
1342.277,-58.45
1342.292,-58.89
1342.307,-58.36
1342.322,-58.23
1342.337,-58.68
1342.352,-58.57
1342.367,-58.25
1342.382,-58.5
1342.397,-58.82
1342.412,-58.84
1342.427,-58.82
1342.442,-58.68
1342.457,-58.73
1342.472,-58.57
1342.487,-58.65
1342.502,-58.58
1342.517,-58.63
1342.532,-58.55
1342.547,-58.59
1342.562,-58.61
1342.577,-58.5
1342.592,-58.54
1342.607,-58.51
1342.622,-58.61
1342.637,-58.6
1342.652,-58.7
1342.667,-58.76
1342.682,-58.59
1342.697,-58.95
1342.712,-58.99
1342.727,-58.38
1342.742,-58.57
1342.757,-59.1
1342.772,-58.52
1342.787,-58.31
1342.802,-58.77
1342.817,-59.0
1342.832,-58.39
1342.847,-58.4
1342.862,-58.99
1342.877,-58.62
1342.892,-58.26
1342.907,-58.76
1342.922,-59.19
1342.937,-58.56
1342.952,-58.56
1342.967,-58.99
1342.982,-59.06
1342.997,-58.65
1343.012,-58.89
1343.027,-59.41
1343.042,-58.76
1343.057,-58.62
1343.072,-58.68
1343.087,-58.46
1343.102,-58.44
1343.117,-59.16
1343.132,-58.7
1343.147,-58.37
1343.162,-58.87
1343.177,-59.1
1343.192,-58.44
1343.207,-58.57
1343.222,-59.16
1343.237,-58.94
1343.252,-58.43
1343.267,-58.62
1343.282,-59.03
1343.297,-58.47
1343.312,-58.25
1343.327,-58.78
1343.342,-58.75
1343.357,-58.22
1343.372,-58.27
1343.387,-58.59
1343.402,-58.09
1343.417,-57.92
1343.432,-58.3
1343.447,-58.66
1343.462,-58.07
1343.477,-58.08
1343.492,-58.7
1343.507,-58.24
1343.522,-58.24
1343.537,-58.82
1343.552,-58.66
1343.567,-58.21
1343.582,-58.77
1343.597,-58.96
1343.612,-58.45
1343.627,-58.24
1343.642,-58.6
1343.657,-58.44
1343.672,-57.89
1343.687,-58.29
1343.702,-58.27
1343.717,-57.74
1343.732,-58.0
1343.747,-58.39
1343.762,-57.87
1343.777,-57.7
1343.792,-58.1
1343.807,-58.2
1343.822,-57.68
1343.837,-57.99
1343.852,-58.47
1343.867,-58.02
1343.882,-57.83
1343.897,-58.35
1343.912,-58.41
1343.927,-57.88
1343.942,-58.12
1343.957,-58.26
1343.972,-57.86
1343.987,-57.74
1344.002,-58.16
1344.017,-58.14
1344.032,-57.73
1344.047,-57.92
1344.062,-58.38
1344.077,-58.04
1344.092,-57.93
1344.107,-58.54
1344.122,-57.94
1344.137,-57.79
1344.152,-58.17
1344.167,-58.33
1344.182,-57.86
1344.197,-57.89
1344.212,-58.38
1344.227,-58.01
1344.242,-57.73
1344.257,-57.97
1344.272,-58.35
1344.287,-57.85
1344.302,-57.75
1344.317,-58.26
1344.332,-58.3
1344.347,-57.88
1344.362,-58.13
1344.377,-58.21
1344.392,-57.78
1344.407,-58.02
1344.422,-58.43
1344.437,-58.2
1344.452,-57.87
1344.467,-58.29
1344.482,-58.49
1344.497,-58.0
1344.512,-58.27
1344.527,-58.38
1344.542,-57.76
1344.557,-57.83
1344.572,-58.39
1344.587,-57.98
1344.602,-57.66
1344.617,-57.99
1344.632,-58.39
1344.647,-58.0
1344.662,-58.0
1344.677,-58.28
1344.692,-58.23
1344.707,-57.89
1344.722,-58.1
1344.737,-58.46
1344.752,-58.08
1344.767,-58.15
1344.782,-58.72
1344.797,-58.3
1344.812,-58.11
1344.827,-58.58
1344.842,-58.28
1344.857,-57.86
1344.872,-58.1
1344.887,-58.34
1344.902,-57.98
1344.917,-57.87
1344.932,-58.37
1344.947,-57.9
1344.962,-57.69
1344.977,-58.14
1344.992,-58.44
1345.007,-57.87
1345.022,-57.89
1345.037,-58.38
1345.052,-58.21
1345.067,-57.66
1345.082,-58.0
1345.097,-58.33
1345.112,-57.77
1345.127,-57.64
1345.142,-58.08
1345.157,-58.07
1345.172,-57.58
1345.187,-57.7
1345.202,-58.27
1345.217,-57.82
1345.232,-57.95
1345.247,-58.16
1345.262,-57.96
1345.277,-57.8
1345.292,-58.27
1345.307,-58.28
1345.322,-58.07
1345.337,-58.08
1345.352,-58.43
1345.367,-58.09
1345.382,-58.1
1345.397,-58.89
1345.412,-58.63
1345.427,-58.17
1345.442,-58.48
1345.457,-58.72
1345.472,-58.21
1345.487,-58.12
1345.502,-58.81
1345.517,-58.69
1345.532,-58.18
1345.547,-58.4
1345.562,-59.08
1345.577,-58.44
1345.592,-58.25
1345.607,-58.6
1345.622,-58.42
1345.637,-58.11
1345.652,-58.4
1345.667,-58.43
1345.682,-58.41
1345.697,-58.6
1345.712,-58.59
1345.727,-58.43
1345.742,-58.42
1345.757,-58.63
1345.772,-58.46
1345.787,-58.06
1345.802,-58.66
1345.817,-58.59
1345.832,-58.1
1345.847,-58.48
1345.862,-59.0
1345.877,-58.52
1345.892,-58.79
1345.907,-59.07
1345.922,-58.79
1345.937,-58.5
1345.952,-59.13
1345.967,-59.06
1345.982,-58.77
1345.997,-58.77
1346.012,-59.06
1346.027,-59.02
1346.042,-58.6
1346.057,-58.88
1346.072,-58.93
1346.087,-58.9
1346.102,-58.63
1346.117,-58.98
1346.132,-59.12
1346.147,-58.79
1346.162,-59.03
1346.177,-59.19
1346.192,-59.57
1346.207,-59.19
1346.222,-59.15
1346.237,-58.91
1346.252,-59.22
1346.267,-59.5
1346.282,-59.27
1346.297,-58.92
1346.312,-59.36
1346.327,-59.19
1346.342,-58.93
1346.357,-58.91
1346.372,-59.21
1346.387,-59.2
1346.402,-58.74
1346.417,-58.99
1346.432,-59.06
1346.447,-58.78
1346.462,-58.75
1346.477,-59.04
1346.492,-59.01
1346.507,-58.95
1346.522,-58.68
1346.537,-58.63
1346.552,-59.01
1346.567,-58.83
1346.582,-58.65
1346.597,-58.84
1346.612,-59.1
1346.627,-59.36
1346.642,-59.09
1346.657,-58.81
1346.672,-59.27
1346.687,-59.21
1346.702,-58.73
1346.717,-59.05
1346.732,-59.38
1346.747,-58.93
1346.762,-58.74
1346.777,-59.21
1346.792,-59.32
1346.807,-58.6
1346.822,-58.91
1346.837,-59.52
1346.852,-59.08
1346.867,-58.66
1346.882,-59.34
1346.897,-59.05
1346.912,-59.06
1346.927,-59.54
1346.942,-59.21
1346.957,-58.53
1346.972,-59.17
1346.987,-59.43
1347.002,-58.95
1347.017,-58.74
1347.032,-59.29
1347.047,-59.25
1347.062,-58.57
1347.077,-58.92
1347.092,-59.3
1347.107,-59.06
1347.122,-58.82
1347.137,-59.33
1347.152,-59.38
1347.167,-58.83
1347.182,-59.0
1347.197,-59.15
1347.212,-58.67
1347.227,-58.62
1347.242,-59.24
1347.257,-58.86
1347.272,-58.46
1347.287,-58.64
1347.302,-58.97
1347.317,-58.43
1347.332,-58.85
1347.347,-59.18
1347.362,-58.57
1347.377,-58.35
1347.392,-59.0
1347.407,-58.87
1347.422,-58.38
1347.437,-58.75
1347.452,-59.21
1347.467,-58.81
1347.482,-58.65
1347.497,-59.33
1347.512,-58.93
1347.527,-58.58
1347.542,-59.05
1347.557,-59.3
1347.572,-58.69
1347.587,-58.65
1347.602,-59.25
1347.617,-58.92
1347.632,-58.54
1347.647,-59.38
1347.662,-59.14
1347.677,-58.61
1347.692,-59.1
1347.707,-59.31
1347.722,-58.73
1347.737,-58.69
1347.752,-59.27
1347.767,-59.1
1347.782,-58.74
1347.797,-58.84
1347.812,-59.53
1347.827,-58.95
1347.842,-58.49
1347.857,-59.03
1347.872,-58.97
1347.887,-58.96
1347.902,-58.95
1347.917,-58.48
1347.932,-58.23
1347.947,-58.85
1347.962,-58.98
1347.977,-58.38
1347.992,-58.48
1348.007,-58.85
1348.022,-58.78
1348.037,-58.35
1348.052,-58.71
1348.067,-59.09
1348.082,-58.72
1348.097,-58.92
1348.112,-58.89
1348.127,-58.66
1348.142,-58.6
1348.157,-58.44
1348.172,-58.38
1348.187,-58.31
1348.202,-58.35
1348.217,-58.3
1348.232,-58.49
1348.247,-58.42
1348.262,-58.4
1348.277,-58.45
1348.292,-58.56
1348.307,-58.55
1348.322,-58.44
1348.337,-58.41
1348.352,-58.56
1348.367,-58.66
1348.382,-58.61
1348.397,-58.49
1348.412,-58.75
1348.427,-58.7
1348.442,-58.68
1348.457,-58.71
1348.472,-58.62
1348.487,-58.65
1348.502,-58.66
1348.517,-58.5
1348.532,-58.54
1348.547,-58.62
1348.562,-58.58
1348.577,-58.46
1348.592,-59.26
1348.607,-58.95
1348.622,-58.56
1348.637,-58.97
1348.652,-58.83
1348.667,-58.85
1348.682,-58.97
1348.697,-58.8
1348.712,-58.77
1348.727,-58.85
1348.742,-58.88
1348.757,-58.73
1348.772,-58.79
1348.787,-58.65
1348.802,-58.7
1348.817,-58.7
1348.832,-58.68
1348.847,-58.86
1348.862,-58.56
1348.877,-58.47
1348.892,-58.35
1348.907,-58.58
1348.922,-58.52
1348.937,-58.64
1348.952,-58.42
1348.967,-58.51
1348.982,-58.46
1348.997,-58.44
1349.012,-58.59
1349.027,-58.61
1349.042,-58.6
1349.057,-58.37
1349.072,-58.53
1349.087,-58.64
1349.102,-58.17
1349.117,-58.45
1349.132,-58.78
1349.147,-58.17
1349.162,-58.56
1349.177,-58.52
1349.193,-58.64
1349.207,-58.64
1349.222,-58.64
1349.237,-58.62
1349.252,-58.78
1349.267,-58.71
1349.282,-58.5
1349.297,-58.78
1349.313,-58.88
1349.328,-58.85
1349.343,-58.58
1349.357,-58.27
1349.372,-58.51
1349.387,-58.55
1349.402,-58.26
1349.417,-58.2
1349.432,-58.35
1349.448,-58.23
1349.463,-57.91
1349.478,-57.89
1349.492,-58.07
1349.507,-58.14
1349.522,-57.87
1349.537,-57.93
1349.552,-58.23
1349.568,-58.05
1349.583,-57.97
1349.598,-57.8
1349.613,-57.96
1349.628,-58.01
1349.642,-57.77
1349.657,-57.65
1349.672,-57.92
1349.688,-57.83
1349.703,-58.08
1349.718,-57.92
1349.733,-57.82
1349.748,-57.93
1349.763,-57.99
1349.777,-57.7
1349.792,-57.85
1349.807,-57.98
1349.823,-57.86
1349.838,-57.76
1349.853,-57.81
1349.868,-58.06
1349.883,-58.24
1349.898,-58.14
1349.913,-57.86
1349.927,-57.82
1349.943,-57.81
1349.958,-57.98
1349.973,-57.66
1349.988,-57.68
1350.003,-57.89
1350.018,-57.86
1350.033,-57.53
1350.048,-57.55
1350.063,-57.85
1350.078,-57.58
1350.093,-57.45
1350.108,-57.53
1350.123,-57.65
1350.138,-57.44
1350.153,-57.61
1350.168,-57.51
1350.183,-57.33
1350.198,-57.54
1350.213,-57.63
1350.228,-57.47
1350.243,-57.45
1350.258,-57.33
1350.273,-57.28
1350.288,-57.31
1350.303,-57.27
1350.318,-57.1
1350.333,-57.18
1350.348,-57.22
1350.363,-57.11
1350.378,-57.18
1350.393,-57.12
1350.408,-57.62
1350.423,-57.45
1350.438,-57.27
1350.453,-57.41
1350.468,-57.71
1350.483,-57.77
1350.498,-57.65
1350.513,-57.45
1350.528,-57.61
1350.543,-57.6
1350.558,-57.31
1350.573,-57.41
1350.588,-57.63
1350.603,-57.44
1350.618,-57.25
1350.633,-57.44
1350.648,-57.5
1350.663,-57.75
1350.678,-57.3
1350.693,-57.25
1350.708,-57.11
1350.723,-57.26
1350.738,-57.33
1350.753,-57.22
1350.768,-57.19
1350.783,-57.46
1350.798,-57.41
1350.813,-57.34
1350.828,-57.34
1350.843,-57.38
1350.858,-57.4
1350.873,-57.28
1350.888,-57.4
1350.903,-57.41
1350.918,-57.2
1350.933,-57.51
1350.948,-57.46
1350.963,-57.35
1350.978,-57.55
1350.993,-57.6
1351.008,-57.5
1351.023,-57.4
1351.038,-57.71
1351.053,-57.75
1351.068,-57.62
1351.083,-57.88
1351.098,-57.91
1351.113,-57.84
1351.128,-57.86
1351.143,-57.92
1351.158,-57.89
1351.173,-57.62
1351.188,-58.22
1351.203,-58.2
1351.218,-57.67
1351.233,-57.76
1351.248,-57.8
1351.263,-57.79
1351.278,-57.84
1351.293,-57.74
1351.308,-57.9
1351.323,-57.93
1351.338,-57.87
1351.353,-57.84
1351.368,-58.18
1351.383,-58.12
1351.398,-58.36
1351.413,-57.81
1351.428,-57.74
1351.443,-58.19
1351.458,-57.98
1351.473,-57.53
1351.488,-57.79
1351.503,-58.04
1351.518,-57.73
1351.533,-57.79
1351.548,-57.71
1351.563,-57.86
1351.578,-57.89
1351.593,-57.79
1351.608,-57.86
1351.623,-57.89
1351.638,-57.89
1351.653,-58.05
1351.668,-57.57
1351.683,-57.69
1351.698,-58.19
1351.713,-58.2
1351.728,-58.18
1351.743,-58.0
1351.758,-58.03
1351.773,-58.13
1351.788,-58.02
1351.803,-57.97
1351.818,-58.1
1351.833,-58.29
1351.848,-58.1
1351.863,-58.15
1351.878,-58.21
1351.893,-58.17
1351.908,-58.11
1351.923,-58.57
1351.938,-58.11
1351.953,-58.27
1351.968,-58.26
1351.983,-58.31
1351.998,-58.12
1352.013,-58.23
1352.028,-58.26
1352.043,-58.05
1352.058,-58.0
1352.073,-58.05
1352.088,-57.56
1352.103,-57.48
1352.118,-58.06
1352.133,-58.04
1352.148,-57.64
1352.163,-57.8
1352.178,-58.3
1352.193,-57.86
1352.208,-57.75
1352.223,-58.05
1352.238,-58.24
1352.253,-58.24
1352.268,-58.32
1352.283,-58.14
1352.298,-58.12
1352.313,-58.28
1352.328,-58.58
1352.343,-58.12
1352.358,-58.08
1352.373,-58.43
1352.388,-58.14
1352.403,-57.76
1352.418,-57.91
1352.433,-58.28
1352.448,-57.77
1352.463,-58.29
1352.478,-58.54
1352.493,-57.96
1352.508,-57.87
1352.523,-58.43
1352.538,-58.04
1352.553,-58.11
1352.568,-58.57
1352.583,-58.57
1352.598,-58.25
1352.613,-58.35
1352.628,-58.68
1352.643,-58.31
1352.658,-58.06
1352.673,-58.33
1352.688,-58.2
1352.703,-57.9
1352.718,-58.22
1352.733,-57.97
1352.748,-57.81
1352.763,-58.04
1352.778,-58.38
1352.793,-57.9
1352.808,-57.94
1352.823,-58.34
1352.838,-58.08
1352.853,-57.83
1352.868,-58.19
1352.883,-58.41
1352.898,-58.1
1352.913,-58.47
1352.928,-58.4
1352.943,-58.2
1352.958,-58.31
1352.973,-58.68
1352.988,-58.12
1353.003,-58.07
1353.018,-58.4
1353.033,-58.53
1353.048,-58.14
1353.063,-58.2
1353.078,-58.62
1353.093,-58.66
1353.108,-58.69
1353.123,-58.58
1353.138,-58.12
1353.153,-58.18
1353.168,-58.65
1353.183,-58.31
1353.198,-58.07
1353.213,-58.22
1353.228,-58.54
1353.243,-58.01
1353.258,-57.93
1353.273,-58.26
1353.288,-58.17
1353.303,-58.16
1353.318,-58.22
1353.333,-58.02
1353.348,-57.98
1353.363,-58.46
1353.378,-58.36
1353.393,-57.98
1353.408,-58.17
1353.423,-58.7
1353.438,-58.3
1353.453,-58.25
1353.468,-58.11
1353.483,-58.19
1353.498,-58.28
1353.513,-58.33
1353.528,-58.34
1353.543,-58.31
1353.558,-58.26
1353.573,-58.22
1353.588,-57.84
1353.603,-57.83
1353.618,-58.17
1353.633,-58.04
1353.648,-57.77
1353.663,-57.95
1353.678,-58.34
1353.693,-58.1
1353.708,-58.17
1353.723,-58.19
1353.738,-58.07
1353.753,-58.04
1353.768,-58.57
1353.783,-57.9
1353.798,-57.92
1353.813,-58.28
1353.828,-58.21
1353.843,-57.62
1353.858,-57.79
1353.873,-58.1
1353.888,-57.71
1353.903,-57.44
1353.918,-57.34
1353.933,-57.36
1353.948,-57.36
1353.963,-57.74
1353.978,-57.49
1353.993,-57.3
1354.008,-57.59
1354.023,-57.96
1354.038,-57.56
1354.053,-57.45
1354.068,-57.96
1354.083,-57.8
1354.098,-57.5
1354.113,-57.56
1354.128,-57.9
1354.143,-57.62
1354.158,-58.0
1354.173,-57.84
1354.188,-57.52
1354.203,-57.66
1354.218,-58.17
1354.233,-57.68
1354.248,-57.52
1354.263,-57.95
1354.278,-58.03
1354.293,-57.62
1354.308,-57.74
1354.323,-57.91
1354.338,-57.46
1354.353,-57.69
1354.368,-57.82
1354.383,-57.46
1354.398,-57.54
1354.413,-57.87
1354.428,-57.69
1354.443,-57.33
1354.458,-57.77
1354.473,-57.85
1354.488,-57.46
1354.503,-57.46
1354.518,-57.47
1354.533,-57.17
1354.548,-57.24
1354.563,-57.67
1354.578,-57.36
1354.593,-57.4
1354.608,-57.73
1354.623,-57.65
1354.638,-57.3
1354.653,-57.45
1354.668,-57.89
1354.683,-57.18
1354.698,-57.61
1354.713,-57.79
1354.728,-57.38
1354.743,-57.28
1354.758,-57.8
1354.773,-57.46
1354.788,-57.29
1354.803,-57.65
1354.818,-57.68
1354.833,-57.25
1354.848,-57.5
1354.863,-57.95
1354.878,-57.37
1354.893,-57.53
1354.908,-58.05
1354.923,-57.82
1354.938,-57.44
1354.953,-57.94
1354.968,-57.66
1354.983,-57.42
1354.998,-57.64
1355.013,-57.83
1355.028,-57.29
1355.043,-57.26
1355.058,-57.77
1355.073,-57.27
1355.088,-57.24
1355.103,-57.6
1355.118,-57.54
1355.133,-57.11
1355.148,-57.68
1355.163,-57.48
1355.178,-57.18
1355.193,-57.55
1355.208,-57.94
1355.223,-57.34
1355.238,-57.37
1355.253,-57.64
1355.268,-57.3
1355.283,-57.21
1355.298,-57.58
1355.313,-57.45
1355.328,-57.38
1355.343,-57.83
1355.358,-57.81
1355.373,-57.35
1355.388,-57.46
1355.403,-57.86
1355.418,-57.59
1355.433,-57.31
1355.448,-57.68
1355.463,-57.37
1355.478,-57.28
1355.493,-57.59
1355.508,-57.57
1355.523,-57.53
1355.538,-57.84
1355.553,-58.11
1355.568,-57.6
1355.583,-57.72
1355.598,-58.22
1355.613,-57.89
1355.628,-57.83
1355.643,-58.16
1355.658,-57.99
1355.673,-57.69
1355.688,-58.24
1355.703,-57.87
1355.718,-57.6
1355.733,-57.93
1355.748,-58.49
1355.763,-57.79
1355.778,-57.71
1355.793,-58.34
1355.808,-58.12
1355.823,-57.97
1355.838,-58.52
1355.853,-58.4
1355.868,-58.0
1355.883,-58.54
1355.898,-58.35
1355.913,-57.99
1355.928,-58.4
1355.943,-58.59
1355.958,-58.06
1355.973,-58.08
1355.988,-58.61
1356.003,-58.47
1356.018,-58.43
1356.033,-58.61
1356.048,-58.52
1356.063,-58.25
1356.078,-58.94
1356.093,-58.56
1356.108,-58.16
1356.123,-58.58
1356.138,-58.96
1356.153,-58.37
1356.168,-58.28
1356.183,-58.46
1356.198,-58.26
1356.213,-58.1
1356.228,-58.42
1356.243,-58.23
1356.258,-58.17
1356.273,-58.7
1356.288,-58.51
1356.303,-58.03
1356.318,-58.29
1356.333,-58.61
1356.348,-58.13
1356.363,-57.89
1356.378,-58.1
1356.393,-58.0
1356.408,-57.83
1356.423,-58.09
1356.438,-57.98
1356.453,-57.78
1356.468,-58.23
1356.483,-58.31
1356.498,-57.74
1356.513,-57.82
1356.528,-58.37
1356.543,-58.12
1356.558,-58.0
1356.573,-58.04
1356.588,-57.97
1356.603,-57.72
1356.618,-58.04
1356.633,-57.89
1356.648,-57.55
1356.663,-57.88
1356.678,-58.07
1356.693,-57.61
1356.708,-57.62
1356.723,-58.05
1356.738,-58.06
1356.753,-57.73
1356.768,-58.08
1356.783,-57.99
1356.798,-57.68
1356.813,-57.97
1356.828,-57.82
1356.843,-57.41
1356.858,-57.63
1356.873,-58.1
1356.888,-57.62
1356.903,-57.56
1356.918,-57.98
1356.933,-57.6
1356.948,-57.61
1356.963,-57.98
1356.978,-57.89
1356.993,-57.46
1357.008,-57.96
1357.023,-57.79
1357.038,-57.52
1357.053,-57.72
1357.068,-58.14
1357.083,-57.62
1357.098,-57.59
1357.113,-57.97
1357.128,-57.63
1357.143,-57.5
1357.158,-57.92
1357.173,-57.89
1357.188,-57.79
1357.203,-57.99
1357.219,-58.09
1357.233,-57.67
1357.248,-57.69
1357.263,-58.17
1357.278,-57.95
1357.293,-57.72
1357.308,-58.25
1357.323,-58.09
1357.339,-57.71
1357.354,-58.05
1357.369,-58.28
1357.383,-58.08
1357.398,-58.27
1357.413,-58.54
1357.428,-58.15
1357.443,-58.22
1357.458,-58.61
1357.474,-58.58
1357.489,-58.31
1357.504,-58.94
1357.518,-59.09
1357.533,-58.51
1357.548,-58.79
1357.563,-58.71
1357.578,-58.35
1357.594,-58.64
1357.609,-59.06
1357.624,-58.58
1357.639,-58.35
1357.654,-58.95
1357.668,-58.57
1357.683,-58.22
1357.698,-58.82
1357.714,-58.77
1357.729,-58.22
1357.744,-58.39
1357.759,-58.52
1357.774,-58.03
1357.789,-58.16
1357.803,-58.34
1357.818,-57.88
1357.833,-58.11
1357.849,-58.54
1357.864,-58.21
1357.879,-57.71
1357.894,-58.03
1357.909,-58.24
1357.924,-57.73
1357.939,-57.95
1357.953,-58.38
1357.969,-57.91
1357.984,-58.3
1357.999,-58.5
1358.014,-57.85
1358.029,-57.81
1358.044,-58.23
1358.059,-58.19
1358.074,-57.73
1358.089,-57.96
1358.104,-58.17
1358.119,-58.03
1358.134,-58.53
1358.149,-58.27
1358.164,-57.79
1358.179,-57.93
1358.194,-58.14
1358.209,-57.98
1358.224,-57.64
1358.239,-58.05
1358.254,-58.14
1358.269,-57.82
1358.284,-57.72
1358.299,-57.7
1358.314,-57.46
1358.329,-57.81
1358.344,-57.76
1358.359,-57.4
1358.374,-57.37
1358.389,-57.67
1358.404,-57.5
1358.419,-57.23
1358.434,-57.26
1358.449,-57.26
1358.464,-57.42
1358.479,-57.37
1358.494,-57.27
1358.509,-57.03
1358.524,-57.18
1358.539,-57.26
1358.554,-56.99
1358.569,-56.96
1358.584,-57.28
1358.599,-57.26
1358.614,-57.2
1358.629,-57.19
1358.644,-57.19
1358.659,-57.01
1358.674,-57.39
1358.689,-57.41
1358.704,-56.95
1358.719,-57.16
1358.734,-57.55
1358.749,-57.52
1358.764,-57.59
1358.779,-57.58
1358.794,-57.57
1358.809,-57.67
1358.824,-58.13
1358.839,-57.8
1358.854,-57.46
1358.869,-57.91
1358.884,-57.97
1358.899,-57.7
1358.914,-57.96
1358.929,-57.89
1358.944,-57.85
1358.959,-57.77
1358.974,-57.91
1358.989,-57.48
1359.004,-57.36
1359.019,-57.76
1359.034,-57.68
1359.049,-57.31
1359.064,-57.44
1359.079,-57.52
1359.094,-57.56
1359.109,-57.72
1359.124,-57.43
1359.139,-57.02
1359.154,-57.48
1359.169,-57.77
1359.184,-57.43
1359.199,-57.3
1359.214,-57.68
1359.229,-57.7
1359.244,-57.71
1359.259,-57.76
1359.274,-57.56
1359.289,-57.5
1359.304,-58.16
1359.319,-58.05
1359.334,-57.57
1359.349,-57.84
1359.364,-58.25
1359.379,-58.31
1359.394,-58.36
1359.409,-58.54
1359.424,-58.48
1359.439,-58.5
1359.454,-58.96
1359.469,-58.49
1359.484,-58.19
1359.499,-58.66
1359.514,-58.71
1359.529,-58.3
1359.544,-58.36
1359.559,-58.44
1359.574,-58.29
1359.589,-58.37
1359.604,-58.52
1359.619,-58.01
1359.634,-58.06
1359.649,-58.71
1359.664,-58.47
1359.679,-57.99
1359.694,-58.1
1359.709,-58.21
1359.724,-58.29
1359.739,-58.43
1359.754,-58.31
1359.769,-57.75
1359.784,-58.1
1359.799,-58.32
1359.814,-57.91
1359.829,-57.62
1359.844,-58.11
1359.859,-58.03
1359.874,-58.03
1359.889,-58.17
1359.904,-58.21
1359.919,-57.81
1359.934,-58.26
1359.949,-58.38
1359.964,-57.93
1359.979,-58.17
1359.994,-58.6
1360.009,-58.56
1360.024,-58.73
1360.039,-58.7
1360.054,-58.75
1360.069,-58.72
1360.084,-59.24
1360.099,-58.74
1360.114,-58.24
1360.129,-58.81
1360.144,-58.99
1360.159,-58.37
1360.174,-58.28
1360.189,-58.33
1360.204,-58.57
1360.219,-58.71
1360.234,-58.65
1360.249,-58.14
1360.264,-58.22
1360.279,-58.66
1360.294,-58.51
1360.309,-58.06
1360.324,-58.07
1360.339,-58.11
1360.354,-58.17
1360.369,-58.18
1360.384,-57.97
1360.399,-57.64
1360.414,-57.84
1360.429,-57.98
1360.444,-57.78
1360.459,-57.68
1360.474,-57.64
1360.489,-57.65
1360.504,-57.72
1360.519,-57.63
1360.534,-57.64
1360.549,-57.58
1360.564,-57.92
1360.579,-57.96
1360.594,-57.7
1360.609,-57.83
1360.624,-57.75
1360.639,-57.96
1360.654,-57.89
1360.669,-57.72
1360.684,-57.75
1360.699,-58.06
1360.714,-58.24
1360.729,-57.96
1360.744,-57.68
1360.759,-57.55
1360.774,-57.68
1360.789,-57.81
1360.804,-57.56
1360.819,-57.64
1360.834,-57.7
1360.849,-57.63
1360.864,-57.7
1360.879,-57.35
1360.894,-57.31
1360.909,-57.17
1360.924,-57.42
1360.939,-57.51
1360.954,-57.28
1360.969,-57.34
1360.984,-57.32
1360.999,-57.13
1361.014,-57.02
1361.029,-57.1
1361.044,-56.96
1361.059,-56.93
1361.074,-57.08
1361.089,-57.0
1361.104,-56.97
1361.119,-57.1
1361.134,-57.13
1361.149,-57.09
1361.164,-57.43
1361.179,-57.56
1361.194,-57.44
1361.209,-57.54
1361.224,-57.43
1361.239,-57.48
1361.254,-57.54
1361.269,-57.54
1361.284,-57.47
1361.299,-57.6
1361.314,-57.83
1361.329,-57.78
1361.344,-58.01
1361.359,-58.13
1361.374,-58.05
1361.389,-57.99
1361.404,-57.97
1361.419,-58.06
1361.434,-57.71
1361.449,-58.09
1361.464,-58.17
1361.479,-58.08
1361.494,-58.29
1361.509,-58.25
1361.524,-58.16
1361.539,-58.19
1361.554,-58.15
1361.569,-57.68
1361.584,-57.75
1361.599,-58.11
1361.614,-57.78
1361.629,-57.83
1361.644,-57.85
1361.659,-57.82
1361.674,-57.77
1361.689,-57.91
1361.704,-57.73
1361.719,-57.44
1361.734,-57.72
1361.749,-57.97
1361.764,-57.83
1361.779,-58.04
1361.794,-57.95
1361.809,-57.98
1361.824,-57.95
1361.839,-58.5
1361.854,-58.0
1361.869,-57.94
1361.884,-58.42
1361.899,-58.31
1361.914,-58.32
1361.929,-58.33
1361.944,-58.24
1361.959,-58.24
1361.974,-58.66
1361.989,-58.74
1362.004,-58.14
1362.019,-58.69
1362.034,-58.65
1362.049,-58.53
1362.064,-58.59
1362.079,-58.84
1362.094,-58.82
1362.109,-58.73
1362.124,-59.48
1362.139,-59.01
1362.154,-58.75
1362.169,-58.83
1362.184,-58.72
1362.199,-58.76
1362.214,-58.8
1362.229,-58.84
1362.244,-58.38
1362.259,-58.72
1362.274,-59.06
1362.289,-58.59
1362.304,-58.5
1362.319,-58.72
1362.334,-58.85
1362.349,-58.66
1362.364,-58.53
1362.379,-58.16
1362.394,-58.21
1362.409,-58.73
1362.424,-58.42
1362.439,-58.47
1362.454,-58.46
1362.469,-58.48
1362.484,-58.45
1362.499,-58.3
1362.514,-58.19
1362.529,-58.0
1362.544,-58.08
1362.559,-58.52
1362.574,-58.64
1362.589,-58.67
1362.604,-58.49
1362.619,-58.68
1362.634,-58.74
1362.649,-58.62
1362.664,-58.19
1362.679,-58.08
1362.694,-58.59
1362.709,-58.49
1362.724,-58.55
1362.739,-58.5
1362.754,-58.36
1362.769,-58.33
1362.784,-58.3
1362.799,-58.22
1362.814,-57.83
1362.829,-58.13
1362.844,-58.09
1362.859,-57.94
1362.874,-57.92
1362.889,-58.1
1362.904,-57.9
1362.919,-57.97
1362.934,-58.42
1362.949,-57.89
1362.964,-57.87
1362.979,-58.05
1362.994,-57.72
1363.009,-57.86
1363.024,-57.99
1363.039,-57.95
1363.054,-57.67
1363.069,-58.21
1363.084,-58.08
1363.099,-57.6
1363.114,-57.74
1363.129,-57.69
1363.144,-57.41
1363.159,-57.72
1363.174,-57.95
1363.189,-57.69
1363.204,-57.74
1363.219,-58.24
1363.234,-57.69
1363.249,-57.71
1363.264,-57.9
1363.279,-57.69
1363.294,-57.65
1363.309,-57.92
1363.324,-57.79
1363.339,-57.49
1363.354,-57.89
1363.369,-57.77
1363.384,-57.74
1363.399,-58.0
1363.414,-58.01
1363.429,-57.65
1363.444,-57.63
1363.459,-57.98
1363.474,-57.45
1363.489,-57.56
1363.504,-58.18
1363.519,-57.94
1363.534,-57.97
1363.549,-58.44
1363.564,-58.24
1363.579,-57.96
1363.594,-58.08
1363.609,-58.03
1363.624,-57.62
1363.639,-57.83
1363.654,-58.19
1363.669,-58.0
1363.684,-58.12
1363.699,-58.3
1363.714,-58.05
1363.729,-57.93
1363.744,-58.41
1363.759,-57.91
1363.774,-57.95
1363.789,-58.49
1363.804,-58.45
1363.819,-58.45
1363.834,-58.57
1363.849,-58.53
1363.864,-58.39
1363.879,-59.19
1363.894,-58.93
1363.909,-58.65
1363.924,-59.07
1363.939,-59.02
1363.954,-58.96
1363.969,-58.97
1363.984,-58.95
1363.999,-59.08
1364.014,-59.25
1364.029,-59.67
1364.044,-59.02
1364.059,-59.05
1364.074,-58.87
1364.089,-58.81
1364.104,-58.74
1364.119,-58.81
1364.134,-58.82
1364.149,-58.81
1364.164,-59.24
1364.179,-59.04
1364.194,-58.61
1364.209,-58.72
1364.224,-58.7
1364.239,-58.58
1364.254,-58.63
1364.269,-58.63
1364.284,-58.22
1364.299,-58.22
1364.314,-58.66
1364.329,-58.4
1364.344,-58.34
1364.359,-58.32
1364.374,-58.63
1364.389,-58.73
1364.404,-58.52
1364.419,-58.42
1364.434,-58.32
1364.449,-58.55
1364.464,-58.57
1364.479,-58.73
1364.494,-58.55
1364.509,-58.51
1364.524,-58.58
1364.539,-58.5
1364.554,-58.85
1364.569,-58.35
1364.584,-58.25
1364.599,-58.55
1364.614,-58.82
1364.629,-58.66
1364.644,-58.49
1364.659,-58.65
1364.674,-58.47
1364.689,-58.88
1364.704,-58.62
1364.719,-58.49
1364.734,-58.8
1364.749,-58.69
1364.764,-58.93
1364.779,-58.95
1364.794,-59.14
1364.809,-58.52
1364.824,-58.81
1364.839,-59.3
1364.854,-58.71
1364.869,-58.75
1364.884,-58.43
1364.899,-58.57
1364.914,-58.49
1364.929,-58.66
1364.944,-58.33
1364.959,-58.14
1364.974,-58.4
1364.989,-58.63
1365.004,-58.16
1365.019,-58.1
1365.034,-57.95
1365.049,-57.66
1365.064,-57.99
1365.079,-58.27
1365.094,-57.93
1365.109,-58.04
1365.124,-58.39
1365.139,-58.16
1365.154,-58.49
1365.169,-58.37
1365.184,-57.93
1365.199,-58.01
1365.214,-58.35
1365.229,-58.1
1365.245,-57.84
1365.259,-58.2
1365.274,-58.01
1365.289,-58.0
1365.304,-58.31
1365.319,-58.2
1365.334,-57.88
1365.349,-58.01
1365.365,-58.3
1365.38,-57.84
1365.395,-58.01
1365.409,-58.25
1365.424,-57.79
1365.439,-57.94
1365.454,-58.44
1365.469,-58.01
1365.484,-57.76
1365.5,-58.18
1365.515,-57.7
1365.53,-57.51
1365.544,-58.03
1365.559,-57.64
1365.574,-57.43
1365.589,-57.75
1365.604,-58.08
1365.62,-57.61
1365.635,-58.09
1365.65,-58.33
1365.665,-57.78
1365.68,-58.0
1365.694,-58.26
1365.709,-57.75
1365.724,-57.71
1365.74,-58.01
1365.755,-57.54
1365.77,-57.54
1365.785,-57.92
1365.8,-57.37
1365.815,-57.51
1365.83,-57.91
1365.844,-57.62
1365.859,-57.33
1365.875,-57.93
1365.89,-57.85
1365.905,-57.48
1365.92,-57.88
1365.935,-57.81
1365.95,-57.49
1365.965,-57.68
1365.979,-57.72
1365.995,-57.29
1366.01,-57.6
1366.025,-57.82
1366.04,-57.49
1366.055,-57.81
1366.07,-58.15
1366.085,-57.64
1366.1,-58.0
1366.115,-58.23
1366.13,-57.96
1366.145,-57.91
1366.16,-58.19
1366.175,-57.89
1366.19,-57.85
1366.205,-58.28
1366.22,-57.99
1366.235,-57.8
1366.25,-58.36
1366.265,-58.34
1366.28,-57.98
1366.295,-58.42
1366.31,-58.77
1366.325,-58.2
1366.34,-58.7
1366.355,-58.95
1366.37,-58.29
1366.385,-58.57
1366.4,-58.59
1366.415,-58.26
1366.43,-58.2
1366.445,-58.7
1366.46,-58.07
1366.475,-58.29
1366.49,-58.78
1366.505,-58.37
1366.52,-58.46
1366.535,-58.97
1366.55,-58.97
1366.565,-58.45
1366.58,-59.08
1366.595,-58.96
1366.61,-58.2
1366.625,-58.54
1366.64,-58.41
1366.655,-58.1
1366.67,-58.24
1366.685,-58.49
1366.7,-57.89
1366.715,-58.28
1366.73,-58.79
1366.745,-58.31
1366.76,-58.58
1366.775,-59.0
1366.79,-58.75
1366.805,-58.63
1366.82,-59.27
1366.835,-58.59
1366.85,-58.3
1366.865,-59.2
1366.88,-58.66
1366.895,-58.48
1366.91,-58.7
1366.925,-58.81
1366.94,-58.37
1366.955,-58.94
1366.97,-58.96
1366.985,-58.81
1367.0,-58.91
1367.015,-59.13
1367.03,-58.67
1367.045,-58.75
1367.06,-58.99
1367.075,-58.23
1367.09,-58.4
1367.105,-58.57
1367.12,-58.03
1367.135,-58.08
1367.15,-58.38
1367.165,-57.98
1367.18,-57.96
1367.195,-58.46
1367.21,-58.04
1367.225,-58.16
1367.24,-58.44
1367.255,-58.3
1367.27,-57.77
1367.285,-58.29
1367.3,-58.12
1367.315,-57.67
1367.33,-58.25
1367.345,-57.92
1367.36,-57.54
1367.375,-57.84
1367.39,-58.23
1367.405,-57.8
1367.42,-58.14
1367.435,-58.56
1367.45,-58.01
1367.465,-58.36
1367.48,-58.53
1367.495,-58.02
1367.51,-58.04
1367.525,-58.44
1367.54,-57.98
1367.555,-57.78
1367.57,-58.38
1367.585,-57.96
1367.6,-57.86
1367.615,-58.38
1367.63,-58.42
1367.645,-58.15
1367.66,-58.66
1367.675,-58.61
1367.69,-58.25
1367.705,-58.76
1367.72,-58.77
1367.735,-58.24
1367.75,-58.67
1367.765,-58.69
1367.78,-58.24
1367.795,-58.29
1367.81,-58.77
1367.825,-58.07
1367.84,-58.18
1367.855,-58.41
1367.87,-57.9
1367.885,-58.04
1367.9,-58.37
1367.915,-58.2
1367.93,-57.84
1367.945,-58.38
1367.96,-57.93
1367.975,-58.03
1367.99,-58.33
1368.005,-58.31
1368.02,-57.86
1368.035,-58.25
1368.05,-58.44
1368.065,-58.45
1368.08,-58.87
1368.095,-58.7
1368.11,-58.2
1368.125,-58.71
1368.14,-58.73
1368.155,-58.36
1368.17,-58.51
1368.185,-58.31
1368.2,-57.77
1368.215,-58.29
1368.23,-58.15
1368.245,-57.93
1368.26,-57.91
1368.275,-58.35
1368.29,-58.18
1368.305,-58.7
1368.32,-58.69
1368.335,-58.21
1368.35,-58.3
1368.365,-58.77
1368.38,-58.61
1368.395,-58.49
1368.41,-58.55
1368.425,-57.96
1368.44,-58.09
1368.455,-58.52
1368.47,-58.2
1368.485,-57.87
1368.5,-57.96
1368.515,-57.95
1368.53,-57.86
1368.545,-58.37
1368.56,-58.25
1368.575,-57.83
1368.59,-58.14
1368.605,-58.32
1368.62,-58.32
1368.635,-58.34
1368.65,-58.32
1368.665,-57.8
1368.68,-58.12
1368.695,-58.33
1368.71,-57.86
1368.725,-57.8
1368.74,-57.89
1368.755,-57.54
1368.77,-57.74
1368.785,-57.9
1368.8,-57.6
1368.815,-57.37
1368.83,-57.81
1368.845,-57.81
1368.86,-58.0
1368.875,-58.33
1368.89,-58.01
1368.905,-57.74
1368.92,-58.22
1368.935,-58.29
1368.95,-57.68
1368.965,-57.99
1368.98,-57.72
1368.995,-57.44
1369.01,-57.89
1369.025,-57.93
1369.04,-57.52
1369.055,-57.64
1369.07,-57.66
1369.085,-57.25
1369.1,-57.79
1369.115,-57.83
1369.13,-57.48
1369.145,-57.71
1369.16,-58.21
1369.175,-57.82
1369.19,-57.84
1369.205,-58.6
1369.22,-57.91
1369.235,-58.05
1369.25,-58.47
1369.265,-58.18
1369.28,-57.8
1369.295,-58.21
1369.31,-57.8
1369.325,-57.67
1369.34,-58.1
1369.355,-57.89
1369.37,-57.62
1369.385,-58.19
1369.4,-57.77
1369.415,-57.54
1369.43,-57.96
1369.445,-58.13
1369.46,-57.61
1369.475,-58.14
1369.49,-58.24
1369.505,-58.02
1369.52,-58.23
1369.535,-58.6
1369.55,-58.09
1369.565,-58.39
1369.58,-58.75
1369.595,-58.21
1369.61,-58.29
1369.625,-58.48
1369.64,-58.09
1369.655,-57.84
1369.67,-58.28
1369.685,-57.91
1369.7,-57.69
1369.715,-58.38
1369.73,-58.21
1369.745,-58.15
1369.76,-58.53
1369.775,-58.19
1369.79,-57.99
1369.805,-58.64
1369.82,-58.52
1369.835,-57.99
1369.85,-58.2
1369.865,-58.07
1369.88,-58.01
1369.895,-58.36
1369.91,-58.27
1369.925,-57.94
1369.94,-58.23
1369.955,-58.65
1369.97,-58.29
1369.985,-58.32
1370.0,-58.5
