wavelength_axis,light_level
1250.0,-58.75
1250.015,-58.37
1250.03,-58.08
1250.045,-58.51
1250.06,-58.62
1250.075,-59.0
1250.09,-58.28
1250.105,-58.54
1250.12,-58.7
1250.135,-59.19
1250.15,-59.02
1250.165,-59.0
1250.18,-58.63
1250.195,-58.74
1250.21,-59.11
1250.225,-59.04
1250.24,-58.89
1250.255,-58.6
1250.27,-58.47
1250.285,-58.81
1250.3,-59.25
1250.315,-58.89
1250.33,-58.74
1250.345,-58.29
1250.36,-58.8
1250.375,-59.05
1250.39,-58.9
1250.405,-58.67
1250.42,-58.5
1250.435,-58.39
1250.45,-58.68
1250.465,-58.95
1250.48,-58.53
1250.495,-58.32
1250.51,-57.98
1250.525,-58.49
1250.54,-58.38
1250.555,-58.58
1250.57,-58.15
1250.585,-58.16
1250.6,-58.23
1250.615,-58.65
1250.63,-58.67
1250.645,-58.68
1250.66,-58.22
1250.675,-58.33
1250.69,-58.77
1250.705,-58.67
1250.72,-58.65
1250.735,-58.15
1250.75,-58.48
1250.765,-58.52
1250.78,-58.98
1250.795,-58.66
1250.81,-58.51
1250.825,-58.16
1250.84,-58.41
1250.855,-58.72
1250.87,-58.76
1250.885,-58.49
1250.9,-58.31
1250.915,-58.33
1250.93,-58.7
1250.945,-58.99
1250.96,-58.39
1250.975,-58.4
1250.99,-58.1
1251.005,-58.7
1251.02,-58.7
1251.035,-58.78
1251.05,-58.4
1251.065,-58.8
1251.08,-58.77
1251.095,-59.11
1251.11,-58.75
1251.125,-58.47
1251.14,-58.49
1251.155,-58.86
1251.17,-59.07
1251.185,-59.06
1251.2,-58.86
1251.215,-58.55
1251.23,-58.99
1251.245,-58.95
1251.26,-59.21
1251.275,-58.73
1251.29,-58.63
1251.305,-58.34
1251.32,-58.63
1251.335,-58.51
1251.35,-58.9
1251.365,-58.46
1251.38,-58.51
1251.395,-58.85
1251.41,-59.19
1251.425,-59.13
1251.44,-58.9
1251.455,-59.06
1251.47,-59.07
1251.485,-59.36
1251.5,-59.17
1251.515,-59.59
1251.53,-58.97
1251.545,-59.48
1251.56,-59.33
1251.575,-59.62
1251.59,-59.4
1251.605,-59.28
1251.62,-59.15
1251.635,-59.4
1251.65,-59.25
1251.665,-59.36
1251.68,-59.63
1251.695,-59.31
1251.71,-59.6
1251.725,-59.54
1251.74,-59.89
1251.755,-59.53
1251.77,-59.69
1251.785,-59.41
1251.8,-59.43
1251.815,-59.24
1251.83,-59.45
1251.845,-59.54
1251.86,-59.64
1251.875,-59.66
1251.89,-59.65
1251.905,-60.03
1251.92,-59.6
1251.935,-59.72
1251.95,-59.43
1251.965,-59.56
1251.98,-59.12
1251.995,-59.37
1252.01,-59.24
1252.025,-58.99
1252.04,-59.11
1252.055,-59.03
1252.07,-58.94
1252.085,-59.0
1252.1,-59.19
1252.115,-59.17
1252.13,-59.32
1252.145,-58.84
1252.16,-58.71
1252.175,-58.58
1252.19,-58.39
1252.205,-58.47
1252.22,-58.47
1252.235,-58.48
1252.25,-58.52
1252.265,-58.53
1252.28,-58.52
1252.295,-58.56
1252.31,-58.97
1252.325,-59.03
1252.34,-59.04
1252.355,-58.77
1252.37,-58.71
1252.385,-58.64
1252.4,-58.83
1252.415,-58.4
1252.43,-58.5
1252.445,-58.37
1252.46,-58.19
1252.475,-58.1
1252.49,-58.1
1252.505,-58.03
1252.52,-57.87
1252.535,-58.32
1252.55,-58.14
1252.565,-58.22
1252.58,-57.91
1252.595,-58.2
1252.61,-58.17
1252.625,-58.21
1252.64,-57.82
1252.655,-57.94
1252.67,-57.94
1252.685,-57.88
1252.7,-58.13
1252.715,-58.12
1252.73,-58.1
1252.745,-58.12
1252.76,-58.37
1252.775,-58.33
1252.79,-58.4
1252.805,-58.25
1252.82,-58.24
1252.835,-58.14
1252.85,-58.21
1252.865,-57.96
1252.88,-58.06
1252.895,-57.98
1252.91,-57.84
1252.925,-58.26
1252.94,-58.11
1252.955,-58.08
1252.97,-58.07
1252.985,-58.36
1253.0,-58.34
1253.015,-58.36
1253.03,-58.4
1253.045,-58.26
1253.06,-58.48
1253.075,-58.42
1253.09,-58.54
1253.105,-58.05
1253.12,-58.05
1253.135,-57.84
1253.15,-58.25
1253.165,-57.95
1253.18,-58.08
1253.195,-58.07
1253.21,-58.06
1253.225,-58.11
1253.24,-58.15
1253.255,-58.35
1253.271,-58.12
1253.285,-58.18
1253.3,-58.22
1253.315,-58.24
1253.33,-58.05
1253.345,-58.12
1253.36,-58.0
1253.375,-58.4
1253.391,-58.42
1253.406,-58.5
1253.421,-58.41
1253.435,-58.15
1253.45,-58.3
1253.465,-58.31
1253.48,-58.57
1253.495,-58.16
1253.51,-58.09
1253.526,-58.1
1253.541,-58.1
1253.556,-58.11
1253.571,-58.13
1253.585,-58.17
1253.6,-58.13
1253.615,-58.52
1253.63,-58.4
1253.646,-58.53
1253.661,-58.24
1253.676,-58.41
1253.691,-58.35
1253.706,-58.42
1253.72,-58.15
1253.735,-58.32
1253.75,-58.11
1253.766,-58.23
1253.781,-58.48
1253.796,-58.33
1253.811,-58.32
1253.826,-58.15
1253.841,-58.61
1253.856,-58.43
1253.87,-58.64
1253.885,-58.28
1253.901,-58.46
1253.916,-58.54
1253.931,-58.57
1253.946,-58.51
1253.961,-58.6
1253.976,-58.5
1253.991,-58.37
1254.005,-58.8
1254.021,-58.5
1254.036,-58.73
1254.051,-58.65
1254.066,-58.85
1254.081,-58.85
1254.096,-58.92
1254.111,-58.85
1254.126,-58.69
1254.141,-58.82
1254.156,-58.53
1254.171,-59.09
1254.186,-58.98
1254.201,-59.06
1254.216,-59.07
1254.231,-59.49
1254.246,-59.41
1254.261,-59.42
1254.276,-59.21
1254.291,-59.36
1254.306,-59.18
1254.321,-59.26
1254.336,-59.18
1254.351,-58.72
1254.366,-58.96
1254.381,-58.94
1254.396,-59.36
1254.411,-58.96
1254.426,-59.04
1254.441,-59.03
1254.456,-59.18
1254.471,-59.18
1254.486,-59.08
1254.501,-59.11
1254.516,-58.87
1254.531,-59.14
1254.546,-59.03
1254.561,-59.15
1254.576,-58.7
1254.591,-58.8
1254.606,-58.69
1254.621,-58.57
1254.636,-58.68
1254.651,-58.76
1254.666,-58.71
1254.681,-58.63
1254.696,-58.75
1254.711,-58.63
1254.726,-58.69
1254.741,-58.2
1254.756,-58.38
1254.771,-58.24
1254.786,-58.2
1254.801,-57.98
1254.816,-58.13
1254.831,-58.24
1254.846,-58.16
1254.861,-58.62
1254.876,-58.4
1254.891,-58.4
1254.906,-58.23
1254.921,-58.37
1254.936,-58.25
1254.951,-58.35
1254.966,-57.93
1254.981,-57.97
1254.996,-58.03
1255.011,-58.05
1255.026,-58.17
1255.041,-58.09
1255.056,-58.09
1255.071,-57.89
1255.086,-58.12
1255.101,-57.81
1255.116,-57.97
1255.131,-57.89
1255.146,-57.95
1255.161,-58.03
1255.176,-57.96
1255.191,-57.79
1255.206,-57.87
1255.221,-57.88
1255.236,-57.8
1255.251,-58.11
1255.266,-57.93
1255.281,-57.96
1255.296,-57.82
1255.311,-58.23
1255.326,-57.97
1255.341,-58.11
1255.356,-58.15
1255.371,-58.18
1255.386,-58.12
1255.401,-57.96
1255.416,-58.08
1255.431,-57.76
1255.446,-57.84
1255.461,-57.77
1255.476,-58.13
1255.491,-57.99
1255.506,-58.05
1255.521,-58.15
1255.536,-58.29
1255.551,-58.19
1255.566,-58.11
1255.581,-58.29
1255.596,-58.09
1255.611,-58.25
1255.626,-58.18
1255.641,-58.37
1255.656,-58.03
1255.671,-58.2
1255.686,-58.17
1255.701,-58.3
1255.716,-58.48
1255.731,-58.41
1255.746,-58.48
1255.761,-58.43
1255.776,-58.61
1255.791,-58.33
1255.806,-58.65
1255.821,-58.22
1255.836,-58.18
1255.851,-58.24
1255.866,-58.04
1255.881,-58.08
1255.896,-57.84
1255.911,-57.91
1255.926,-57.94
1255.941,-58.2
1255.956,-57.99
1255.971,-58.19
1255.986,-57.93
1256.001,-58.12
1256.016,-58.43
1256.031,-58.46
1256.046,-58.14
1256.061,-57.98
1256.076,-58.3
1256.091,-58.15
1256.106,-58.54
1256.121,-58.15
1256.136,-58.06
1256.151,-58.0
1256.166,-58.35
1256.181,-58.54
1256.196,-58.23
1256.211,-57.98
1256.226,-57.94
1256.241,-58.23
1256.256,-57.95
1256.271,-57.9
1256.286,-57.75
1256.301,-57.9
1256.316,-58.07
1256.331,-58.38
1256.346,-58.16
1256.361,-57.96
1256.376,-58.01
1256.391,-58.21
1256.406,-58.52
1256.421,-58.14
1256.436,-57.99
1256.451,-57.87
1256.466,-58.28
1256.481,-58.44
1256.496,-58.13
1256.511,-57.79
1256.526,-57.9
1256.541,-58.1
1256.556,-58.45
1256.571,-58.51
1256.586,-58.1
1256.601,-58.07
1256.616,-58.46
1256.631,-58.78
1256.646,-58.52
1256.661,-58.3
1256.676,-58.2
1256.691,-58.15
1256.706,-58.6
1256.721,-58.3
1256.736,-58.15
1256.751,-57.96
1256.766,-58.17
1256.781,-58.41
1256.796,-58.79
1256.811,-58.35
1256.826,-58.17
1256.841,-58.39
1256.856,-58.54
1256.871,-58.97
1256.886,-58.53
1256.901,-58.51
1256.916,-58.35
1256.931,-58.73
1256.946,-58.79
1256.961,-58.51
1256.976,-58.19
1256.991,-58.41
1257.006,-58.92
1257.021,-58.86
1257.036,-58.62
1257.051,-58.35
1257.066,-58.62
1257.081,-58.36
1257.096,-58.95
1257.111,-58.45
1257.126,-58.25
1257.141,-58.3
1257.156,-58.35
1257.171,-58.69
1257.186,-58.15
1257.201,-58.2
1257.216,-58.16
1257.231,-58.44
1257.246,-58.49
1257.261,-58.76
1257.276,-58.44
1257.291,-58.35
1257.306,-58.37
1257.321,-58.42
1257.336,-58.29
1257.351,-57.97
1257.366,-57.98
1257.381,-58.03
1257.396,-58.36
1257.411,-58.09
1257.426,-58.25
1257.441,-58.26
1257.456,-58.51
1257.471,-58.77
1257.486,-58.64
1257.501,-58.82
1257.516,-58.68
1257.531,-58.98
1257.546,-58.76
1257.561,-58.95
1257.576,-58.65
1257.591,-58.56
1257.606,-58.72
1257.621,-58.71
1257.636,-58.79
1257.651,-58.4
1257.666,-58.54
1257.681,-58.32
1257.696,-58.77
1257.711,-58.7
1257.726,-58.89
1257.741,-58.44
1257.756,-58.5
1257.771,-58.89
1257.786,-58.84
1257.801,-58.66
1257.816,-58.3
1257.831,-58.41
1257.846,-58.3
1257.861,-58.87
1257.876,-58.32
1257.891,-58.24
1257.906,-58.24
1257.921,-58.65
1257.936,-58.88
1257.951,-58.47
1257.966,-58.53
1257.981,-58.49
1257.996,-58.91
1258.011,-58.73
1258.026,-58.74
1258.041,-58.28
1258.056,-58.24
1258.071,-58.5
1258.086,-58.87
1258.101,-58.6
1258.116,-58.31
1258.131,-58.56
1258.146,-58.57
1258.161,-59.17
1258.176,-58.85
1258.191,-58.78
1258.206,-58.66
1258.221,-58.9
1258.236,-59.26
1258.251,-58.95
1258.266,-58.74
1258.281,-58.59
1258.296,-58.95
1258.311,-59.41
1258.326,-59.47
1258.341,-59.04
1258.356,-58.93
1258.371,-59.35
1258.386,-59.42
1258.401,-59.19
1258.416,-58.9
1258.431,-58.58
1258.446,-58.59
1258.461,-58.99
1258.476,-58.77
1258.491,-58.29
1258.506,-57.94
1258.521,-58.26
1258.536,-58.52
1258.551,-58.52
1258.566,-58.45
1258.581,-58.23
1258.596,-58.5
1258.611,-59.03
1258.626,-59.13
1258.641,-58.76
1258.656,-58.74
1258.671,-59.0
1258.686,-59.24
1258.701,-59.47
1258.716,-58.86
1258.731,-58.48
1258.746,-58.56
1258.761,-59.11
1258.776,-59.05
1258.791,-58.5
1258.806,-58.11
1258.821,-58.31
1258.836,-58.89
1258.851,-59.07
1258.866,-58.82
1258.881,-58.56
1258.896,-58.63
1258.911,-59.13
1258.926,-59.35
1258.941,-58.79
1258.956,-58.64
1258.971,-58.75
1258.986,-59.0
1259.001,-59.1
1259.016,-58.85
1259.031,-58.37
1259.046,-58.24
1259.061,-58.67
1259.076,-58.69
1259.091,-58.4
1259.106,-58.11
1259.121,-58.24
1259.136,-58.41
1259.151,-58.53
1259.166,-58.5
1259.181,-58.09
1259.196,-58.18
1259.211,-58.77
1259.226,-58.98
1259.241,-58.67
1259.256,-58.58
1259.271,-58.45
1259.286,-58.63
1259.301,-58.77
1259.316,-58.65
1259.331,-58.04
1259.346,-58.02
1259.361,-58.29
1259.376,-58.37
1259.391,-58.29
1259.406,-58.13
1259.421,-58.19
1259.436,-58.38
1259.451,-58.76
1259.466,-58.76
1259.481,-58.54
1259.496,-58.51
1259.511,-59.02
1259.526,-59.31
1259.541,-59.08
1259.556,-58.88
1259.571,-58.62
1259.586,-58.62
1259.601,-58.94
1259.616,-58.66
1259.631,-58.13
1259.646,-57.9
1259.661,-58.19
1259.676,-58.16
1259.691,-57.99
1259.706,-57.59
1259.721,-57.58
1259.736,-57.75
1259.751,-58.12
1259.766,-58.22
1259.781,-57.79
1259.796,-57.88
1259.811,-58.36
1259.826,-58.59
1259.841,-58.39
1259.856,-58.19
1259.871,-57.99
1259.886,-58.05
1259.901,-58.4
1259.916,-58.15
1259.931,-57.75
1259.946,-57.64
1259.961,-57.77
1259.976,-57.94
1259.991,-57.86
1260.006,-57.58
1260.021,-57.57
1260.036,-57.8
1260.051,-58.22
1260.066,-58.44
1260.081,-58.0
1260.096,-57.91
1260.111,-58.14
1260.126,-58.45
1260.141,-58.29
1260.156,-58.1
1260.171,-57.89
1260.186,-57.98
1260.201,-58.4
1260.216,-58.08
1260.231,-57.75
1260.246,-57.57
1260.261,-57.7
1260.276,-57.98
1260.291,-57.98
1260.306,-57.66
1260.321,-57.38
1260.336,-57.63
1260.351,-57.88
1260.366,-58.2
1260.381,-57.77
1260.396,-57.71
1260.411,-57.92
1260.426,-58.13
1260.441,-58.19
1260.456,-57.87
1260.471,-57.6
1260.486,-57.5
1260.501,-57.88
1260.516,-57.89
1260.531,-57.53
1260.546,-57.17
1260.561,-57.22
1260.576,-57.46
1260.591,-57.6
1260.606,-57.37
1260.621,-57.16
1260.636,-57.37
1260.651,-57.75
1260.666,-57.42
1260.681,-57.29
1260.696,-57.22
1260.711,-57.54
1260.726,-57.94
1260.741,-58.18
1260.756,-57.88
1260.771,-57.59
1260.786,-57.86
1260.801,-58.16
1260.816,-58.13
1260.831,-57.85
1260.846,-57.7
1260.861,-57.86
1260.876,-58.12
1260.891,-58.26
1260.906,-57.79
1260.921,-57.8
1260.936,-57.92
1260.951,-58.36
1260.966,-58.2
1260.981,-57.85
1260.996,-57.74
1261.011,-57.79
1261.026,-58.19
1261.041,-57.91
1261.056,-57.73
1261.071,-57.38
1261.086,-57.68
1261.101,-57.92
1261.116,-58.09
1261.131,-57.72
1261.146,-57.6
1261.161,-58.08
1261.176,-58.13
1261.191,-58.4
1261.206,-57.99
1261.221,-57.97
1261.236,-58.32
1261.251,-58.69
1261.266,-58.56
1261.281,-58.08
1261.297,-58.24
1261.312,-58.39
1261.326,-58.85
1261.341,-58.76
1261.356,-58.54
1261.371,-58.02
1261.386,-58.24
1261.401,-58.63
1261.417,-58.33
1261.432,-58.12
1261.447,-57.84
1261.461,-58.17
1261.476,-58.28
1261.491,-58.31
1261.506,-58.04
1261.521,-57.76
1261.536,-58.21
1261.552,-58.24
1261.567,-58.36
1261.582,-57.97
1261.597,-58.06
1261.611,-58.25
1261.626,-58.69
1261.641,-58.48
1261.656,-58.04
1261.672,-58.64
1261.687,-58.67
1261.702,-59.12
1261.717,-58.63
1261.732,-58.38
1261.746,-57.92
1261.761,-58.29
1261.776,-58.33
1261.792,-57.99
1261.807,-57.88
1261.822,-57.61
1261.837,-57.95
1261.852,-57.78
1261.867,-57.9
1261.882,-57.45
1261.896,-57.41
1261.911,-57.87
1261.927,-58.08
1261.942,-58.03
1261.957,-57.47
1261.972,-57.72
1261.987,-57.81
1262.002,-58.25
1262.017,-58.17
1262.031,-57.75
1262.047,-57.72
1262.062,-57.84
1262.077,-58.24
1262.092,-57.88
1262.107,-57.72
1262.122,-57.41
1262.137,-57.79
1262.152,-58.05
1262.167,-57.98
1262.182,-57.66
1262.197,-57.45
1262.212,-57.83
1262.227,-58.13
1262.242,-57.98
1262.257,-57.44
1262.272,-57.5
1262.287,-57.73
1262.302,-57.87
1262.317,-57.78
1262.332,-57.38
1262.347,-57.25
1262.362,-57.41
1262.377,-57.75
1262.392,-57.6
1262.407,-57.31
1262.422,-57.32
1262.437,-57.59
1262.452,-57.94
1262.467,-57.97
1262.482,-57.67
1262.497,-57.75
1262.512,-58.12
1262.527,-58.57
1262.542,-58.18
1262.557,-58.07
1262.572,-58.09
1262.587,-58.26
1262.602,-58.49
1262.617,-58.31
1262.632,-57.79
1262.647,-57.88
1262.662,-58.04
1262.677,-58.22
1262.692,-57.97
1262.707,-57.67
1262.722,-57.69
1262.737,-57.83
1262.752,-58.32
1262.767,-57.92
1262.782,-57.86
1262.797,-57.85
1262.812,-58.23
1262.827,-58.45
1262.842,-57.97
1262.857,-57.92
1262.872,-57.74
1262.887,-58.3
1262.902,-58.26
1262.917,-58.24
1262.932,-57.71
1262.947,-57.68
1262.962,-58.31
1262.977,-58.36
1262.992,-58.34
1263.007,-57.88
1263.022,-58.12
1263.037,-58.27
1263.052,-58.8
1263.067,-58.55
1263.082,-58.08
1263.097,-58.55
1263.112,-58.85
1263.127,-59.12
1263.142,-58.68
1263.157,-58.49
1263.172,-58.07
1263.187,-58.48
1263.202,-58.75
1263.217,-58.36
1263.232,-57.88
1263.247,-57.7
1263.262,-58.27
1263.277,-58.19
1263.292,-58.19
1263.307,-57.77
1263.322,-57.69
1263.337,-58.13
1263.352,-58.1
1263.367,-58.17
1263.382,-57.73
1263.397,-57.94
1263.412,-58.23
1263.427,-58.64
1263.442,-58.28
1263.457,-57.98
1263.472,-57.98
1263.487,-58.26
1263.502,-58.46
1263.517,-58.0
1263.532,-57.74
1263.547,-57.59
1263.562,-58.01
1263.577,-57.96
1263.592,-57.83
1263.607,-57.67
1263.622,-57.57
1263.637,-57.93
1263.652,-57.77
1263.667,-57.75
1263.682,-57.38
1263.697,-57.54
1263.712,-57.79
1263.727,-57.75
1263.742,-57.75
1263.757,-57.36
1263.772,-57.75
1263.787,-57.74
1263.802,-58.13
1263.817,-57.73
1263.832,-57.43
1263.847,-57.84
1263.862,-57.95
1263.877,-58.27
1263.892,-57.72
1263.907,-57.78
1263.922,-57.86
1263.937,-58.26
1263.952,-58.32
1263.967,-57.72
1263.982,-57.7
1263.997,-57.63
1264.012,-58.14
1264.027,-57.85
1264.042,-57.87
1264.057,-57.8
1264.072,-58.07
1264.087,-58.51
1264.102,-57.96
1264.117,-57.75
1264.132,-57.57
1264.147,-57.81
1264.162,-57.92
1264.177,-57.79
1264.192,-57.49
1264.207,-57.43
1264.222,-57.74
1264.237,-57.78
1264.252,-57.94
1264.267,-57.45
1264.282,-57.54
1264.297,-57.89
1264.312,-57.78
1264.327,-57.88
1264.342,-57.47
1264.357,-57.8
1264.372,-57.85
1264.387,-58.35
1264.402,-58.07
1264.417,-58.02
1264.432,-57.99
1264.447,-58.29
1264.462,-58.61
1264.477,-58.2
1264.492,-58.0
1264.507,-57.78
1264.522,-58.29
1264.537,-58.24
1264.552,-58.22
1264.567,-58.08
1264.582,-58.02
1264.597,-58.53
1264.612,-58.3
1264.627,-58.27
1264.642,-57.92
1264.657,-58.11
1264.672,-58.41
1264.687,-58.28
1264.702,-58.08
1264.717,-57.81
1264.732,-58.27
1264.747,-58.32
1264.762,-58.56
1264.777,-58.07
1264.792,-58.35
1264.807,-58.44
1264.822,-58.34
1264.837,-58.39
1264.852,-58.0
1264.867,-58.12
1264.882,-58.16
1264.897,-58.6
1264.912,-58.42
1264.927,-58.19
1264.942,-58.28
1264.957,-58.52
1264.972,-58.84
1264.987,-58.46
1265.002,-58.48
1265.017,-58.25
1265.032,-58.64
1265.047,-58.61
1265.062,-58.24
1265.077,-58.34
1265.092,-58.1
1265.107,-58.49
1265.122,-58.46
1265.137,-58.52
1265.152,-58.22
1265.167,-58.43
1265.182,-58.67
1265.197,-58.63
1265.212,-58.51
1265.227,-58.2
1265.242,-58.64
1265.257,-58.52
1265.272,-58.55
1265.287,-58.53
1265.302,-58.07
1265.317,-58.67
1265.332,-58.54
1265.347,-58.7
1265.362,-58.31
1265.377,-58.47
1265.392,-58.39
1265.407,-58.86
1265.422,-58.72
1265.437,-58.35
1265.452,-58.37
1265.467,-58.19
1265.482,-58.54
1265.497,-58.31
1265.512,-58.38
1265.527,-58.39
1265.542,-58.53
1265.557,-58.73
1265.572,-58.41
1265.587,-58.51
1265.602,-58.18
1265.617,-58.66
1265.632,-58.63
1265.647,-58.66
1265.662,-58.41
1265.677,-58.34
1265.692,-58.81
1265.707,-58.77
1265.722,-58.86
1265.737,-58.5
1265.752,-58.63
1265.767,-58.73
1265.782,-58.85
1265.797,-58.53
1265.812,-57.99
1265.827,-58.22
1265.842,-58.4
1265.857,-58.68
1265.872,-58.41
1265.887,-58.24
1265.902,-58.19
1265.917,-58.6
1265.932,-58.78
1265.947,-58.37
1265.962,-58.19
1265.977,-57.97
1265.992,-58.56
1266.007,-58.61
1266.022,-58.55
1266.037,-58.41
1266.052,-58.74
1266.067,-59.11
1266.082,-58.58
1266.097,-58.56
1266.112,-58.19
1266.127,-58.45
1266.142,-58.44
1266.157,-58.5
1266.172,-58.01
1266.187,-57.95
1266.202,-58.39
1266.217,-58.4
1266.232,-58.6
1266.247,-58.01
1266.262,-58.24
1266.277,-58.5
1266.292,-58.41
1266.307,-58.53
1266.322,-58.1
1266.337,-58.43
1266.352,-58.34
1266.367,-58.79
1266.382,-58.34
1266.397,-58.23
1266.412,-58.14
1266.427,-58.46
1266.442,-58.58
1266.457,-58.11
1266.472,-58.11
1266.487,-58.02
1266.502,-58.5
1266.517,-58.46
1266.532,-58.04
1266.547,-58.11
1266.562,-58.14
1266.577,-58.5
1266.592,-58.3
1266.607,-58.33
1266.622,-58.36
1266.637,-58.45
1266.652,-58.62
1266.667,-58.72
1266.682,-58.87
1266.697,-58.43
1266.712,-58.93
1266.727,-58.94
1266.742,-58.97
1266.757,-58.94
1266.772,-58.76
1266.787,-59.0
1266.802,-58.95
1266.817,-59.13
1266.832,-58.85
1266.847,-59.08
1266.862,-59.01
1266.877,-58.95
1266.892,-59.11
1266.907,-58.72
1266.922,-58.7
1266.937,-58.68
1266.952,-58.76
1266.967,-58.39
1266.982,-58.7
1266.997,-58.65
1267.012,-58.49
1267.027,-58.51
1267.042,-58.21
1267.057,-58.04
1267.072,-58.07
1267.087,-58.0
1267.102,-57.93
1267.117,-57.94
1267.132,-57.87
1267.147,-57.9
1267.162,-57.79
1267.177,-57.98
1267.192,-57.97
1267.207,-57.96
1267.222,-57.94
1267.237,-57.75
1267.252,-57.86
1267.267,-57.85
1267.282,-57.96
1267.297,-58.01
1267.312,-58.09
1267.327,-58.02
1267.342,-57.8
1267.357,-58.04
1267.372,-57.79
1267.387,-57.93
1267.402,-57.84
1267.417,-57.85
1267.432,-57.66
1267.447,-57.76
1267.462,-57.75
1267.477,-57.8
1267.492,-58.02
1267.507,-57.54
1267.522,-57.69
1267.537,-57.82
1267.552,-57.63
1267.567,-57.82
1267.582,-57.81
1267.597,-57.85
1267.612,-57.79
1267.627,-57.71
1267.642,-57.79
1267.657,-57.91
1267.672,-57.87
1267.687,-57.68
1267.702,-58.01
1267.717,-57.84
1267.732,-57.93
1267.747,-57.82
1267.762,-57.75
1267.777,-57.92
1267.792,-57.9
1267.807,-57.94
1267.822,-57.81
1267.837,-58.01
1267.852,-58.12
1267.867,-57.98
1267.882,-57.88
1267.897,-57.98
1267.912,-58.6
1267.927,-58.65
1267.942,-58.42
1267.957,-58.29
1267.972,-58.6
1267.987,-58.82
1268.002,-58.75
1268.017,-58.56
1268.032,-58.51
1268.047,-59.02
1268.062,-59.22
1268.077,-58.95
1268.092,-58.91
1268.107,-58.99
1268.122,-59.74
1268.137,-59.89
1268.152,-59.8
1268.167,-59.86
1268.182,-60.15
1268.197,-60.33
1268.212,-60.55
1268.227,-60.24
1268.242,-60.13
1268.257,-61.05
1268.272,-61.08
1268.287,-60.99
1268.302,-60.6
1268.317,-60.7
1268.332,-60.81
1268.347,-61.36
1268.362,-61.1
1268.377,-60.6
1268.392,-60.7
1268.407,-60.82
1268.422,-61.08
1268.437,-60.7
1268.452,-59.99
1268.467,-60.15
1268.482,-60.18
1268.497,-60.19
1268.512,-60.25
1268.527,-59.83
1268.542,-59.73
1268.557,-59.91
1268.572,-60.09
1268.587,-59.51
1268.602,-59.12
1268.617,-59.38
1268.632,-59.58
1268.647,-59.74
1268.662,-58.85
1268.677,-59.05
1268.692,-59.07
1268.707,-59.09
1268.722,-58.9
1268.737,-58.5
1268.752,-58.57
1268.767,-58.59
1268.782,-58.82
1268.797,-58.4
1268.812,-58.33
1268.827,-58.28
1268.842,-58.63
1268.857,-58.48
1268.872,-58.09
1268.887,-58.29
1268.902,-58.25
1268.917,-58.15
1268.932,-57.91
1268.947,-58.01
1268.962,-58.02
1268.977,-58.01
1268.992,-58.08
1269.007,-57.61
1269.022,-57.78
1269.037,-57.79
1269.052,-57.75
1269.067,-57.91
1269.082,-57.53
1269.097,-57.62
1269.112,-57.61
1269.127,-57.46
1269.142,-57.53
1269.157,-57.56
1269.172,-57.5
1269.188,-57.38
1269.202,-57.69
1269.217,-57.35
1269.232,-57.59
1269.247,-57.71
1269.262,-57.49
1269.277,-57.71
1269.292,-57.64
1269.307,-57.78
1269.323,-57.47
1269.338,-57.7
1269.352,-57.77
1269.367,-57.82
1269.382,-57.88
1269.397,-57.86
1269.412,-58.29
1269.427,-58.05
1269.443,-58.32
1269.458,-58.23
1269.473,-58.26
1269.487,-58.8
1269.502,-58.7
1269.517,-58.61
1269.532,-58.45
1269.547,-58.81
1269.563,-59.02
1269.578,-58.97
1269.593,-58.71
1269.608,-58.77
1269.623,-59.27
1269.637,-59.05
1269.652,-58.97
1269.667,-59.07
1269.682,-58.85
1269.698,-59.32
1269.713,-59.3
1269.728,-59.4
1269.743,-59.21
1269.758,-59.2
1269.772,-59.36
1269.787,-59.3
1269.802,-59.22
1269.818,-58.96
1269.833,-59.23
1269.848,-58.98
1269.863,-59.09
1269.878,-59.15
1269.893,-58.93
1269.908,-58.97
1269.922,-58.88
1269.938,-59.19
1269.953,-58.61
1269.968,-58.58
1269.983,-58.46
1269.998,-58.57
1270.013,-58.9
1270.028,-58.5
1270.043,-58.5
1270.058,-58.44
1270.073,-58.32
1270.088,-58.38
1270.103,-58.24
1270.118,-58.41
1270.133,-58.49
1270.148,-58.55
1270.163,-58.04
1270.178,-58.2
1270.193,-58.31
1270.208,-58.35
1270.223,-58.39
1270.238,-57.89
1270.253,-57.86
1270.268,-57.91
1270.283,-58.05
1270.298,-57.62
1270.313,-57.44
1270.328,-57.45
1270.343,-57.48
1270.358,-57.56
1270.373,-57.12
1270.388,-57.11
1270.403,-57.15
1270.418,-57.14
1270.433,-57.28
1270.448,-56.82
1270.463,-56.82
1270.478,-56.91
1270.493,-56.96
1270.508,-56.73
1270.523,-56.81
1270.538,-56.93
1270.553,-56.89
1270.568,-57.13
1270.583,-56.76
1270.598,-56.88
1270.613,-56.81
1270.628,-56.75
1270.643,-57.04
1270.658,-56.89
1270.673,-56.88
1270.688,-56.95
1270.703,-57.03
1270.718,-57.04
1270.733,-56.97
1270.748,-56.98
1270.763,-56.96
1270.778,-57.36
1270.793,-57.29
1270.808,-57.45
1270.823,-57.39
1270.838,-57.44
1270.853,-57.92
1270.868,-57.9
1270.883,-57.71
1270.898,-57.74
1270.913,-58.26
1270.928,-58.39
1270.943,-58.18
1270.958,-58.09
1270.973,-58.11
1270.988,-58.79
1271.003,-58.88
1271.018,-58.5
1271.033,-58.43
1271.048,-58.65
1271.063,-59.25
1271.078,-59.26
1271.093,-59.04
1271.108,-59.14
1271.123,-59.44
1271.138,-59.35
1271.153,-59.21
1271.168,-59.28
1271.183,-59.12
1271.198,-59.54
1271.213,-59.45
1271.228,-59.39
1271.243,-59.25
1271.258,-59.43
1271.273,-59.56
1271.288,-59.47
1271.303,-59.32
1271.318,-59.29
1271.333,-59.83
1271.348,-60.03
1271.363,-59.85
1271.378,-59.65
1271.393,-59.53
1271.408,-59.55
1271.423,-59.74
1271.438,-59.46
1271.453,-59.38
1271.468,-59.69
1271.483,-59.82
1271.498,-60.05
1271.513,-60.02
1271.528,-59.45
1271.543,-59.68
1271.558,-59.83
1271.573,-59.69
1271.588,-59.64
1271.603,-59.38
1271.618,-59.86
1271.633,-59.92
1271.648,-60.01
1271.663,-59.32
1271.678,-59.18
1271.693,-59.9
1271.708,-59.97
1271.723,-59.56
1271.738,-59.25
1271.753,-59.57
1271.768,-59.86
1271.783,-60.0
1271.798,-59.64
1271.813,-59.13
1271.828,-59.39
1271.843,-59.51
1271.858,-59.63
1271.873,-58.86
1271.888,-58.8
1271.903,-59.47
1271.918,-59.39
1271.933,-59.25
1271.948,-58.64
1271.963,-58.73
1271.978,-59.31
1271.993,-59.3
1272.008,-58.71
1272.023,-58.53
1272.038,-58.88
1272.053,-59.21
1272.068,-59.22
1272.083,-58.56
1272.098,-58.43
1272.113,-58.91
1272.128,-58.78
1272.143,-59.22
1272.158,-58.62
1272.173,-58.64
1272.188,-59.21
1272.203,-58.91
1272.218,-58.71
1272.233,-58.24
1272.248,-58.64
1272.263,-58.95
1272.278,-58.9
1272.293,-58.66
1272.308,-58.49
1272.323,-58.89
1272.338,-59.05
1272.353,-58.77
1272.368,-58.52
1272.383,-58.61
1272.398,-59.0
1272.413,-59.27
1272.428,-59.25
1272.443,-58.79
1272.458,-59.11
1272.473,-59.56
1272.488,-59.76
1272.503,-59.38
1272.518,-59.03
1272.533,-59.31
1272.548,-59.51
1272.563,-59.36
1272.578,-59.06
1272.593,-58.81
1272.608,-59.03
1272.623,-59.21
1272.638,-59.06
1272.653,-58.68
1272.668,-58.6
1272.683,-58.94
1272.698,-58.83
1272.713,-58.17
1272.728,-58.18
1272.743,-58.23
1272.758,-58.26
1272.773,-58.33
1272.788,-57.98
1272.803,-57.82
1272.818,-58.05
1272.833,-58.23
1272.848,-58.22
1272.863,-57.78
1272.878,-57.76
1272.893,-58.06
1272.908,-57.95
1272.923,-57.56
1272.938,-57.32
1272.953,-57.48
1272.968,-57.91
1272.983,-57.74
1272.998,-57.32
1273.013,-57.51
1273.028,-57.65
1273.043,-57.82
1273.058,-57.59
1273.073,-57.19
1273.088,-57.15
1273.103,-57.41
1273.118,-57.46
1273.133,-57.3
1273.148,-56.95
1273.163,-56.95
1273.178,-57.21
1273.193,-57.15
1273.208,-56.98
1273.223,-56.88
1273.238,-56.96
1273.253,-57.19
1273.268,-56.97
1273.283,-57.01
1273.298,-56.9
1273.313,-57.1
1273.328,-57.27
1273.343,-56.93
1273.358,-56.89
1273.373,-57.04
1273.388,-57.1
1273.403,-57.14
1273.418,-56.94
1273.433,-56.77
1273.448,-57.21
1273.463,-57.43
1273.478,-57.28
1273.493,-57.14
1273.508,-57.01
1273.523,-57.35
1273.538,-57.5
1273.553,-57.19
1273.568,-57.06
1273.583,-57.09
1273.598,-57.54
1273.613,-57.82
1273.628,-57.42
1273.643,-57.37
1273.658,-57.52
1273.673,-57.87
1273.688,-58.13
1273.703,-57.66
1273.718,-57.86
1273.733,-58.32
1273.748,-58.59
1273.763,-58.48
1273.778,-58.22
1273.793,-58.27
1273.808,-58.85
1273.823,-59.05
1273.838,-58.68
1273.853,-58.45
1273.868,-58.52
1273.883,-59.18
1273.898,-59.43
1273.913,-59.08
1273.928,-59.02
1273.943,-59.48
1273.958,-59.89
1273.973,-59.85
1273.988,-59.66
1274.003,-59.81
1274.018,-60.03
1274.033,-59.97
1274.048,-59.73
1274.063,-59.54
1274.078,-59.69
1274.093,-60.52
1274.108,-60.53
1274.123,-60.07
1274.138,-59.91
1274.153,-60.28
1274.168,-61.24
1274.183,-60.63
1274.198,-59.85
1274.213,-59.88
1274.228,-60.43
1274.243,-61.1
1274.258,-60.36
1274.273,-60.0
1274.288,-60.0
1274.303,-60.53
1274.318,-60.48
1274.333,-59.76
1274.348,-59.67
1274.363,-60.1
1274.378,-60.44
1274.393,-60.29
1274.408,-59.96
1274.423,-59.98
1274.438,-60.51
1274.453,-60.39
1274.468,-59.89
1274.483,-59.36
1274.498,-59.32
1274.513,-59.74
1274.528,-59.48
1274.543,-59.02
1274.558,-58.92
1274.573,-59.08
1274.588,-59.52
1274.603,-59.14
1274.618,-58.58
1274.633,-58.5
1274.648,-58.88
1274.663,-59.1
1274.678,-58.75
1274.693,-58.22
1274.708,-58.31
1274.723,-58.57
1274.738,-58.45
1274.753,-58.15
1274.768,-58.02
1274.783,-58.05
1274.798,-58.56
1274.813,-58.31
1274.828,-57.75
1274.843,-57.67
1274.858,-57.86
1274.873,-58.3
1274.888,-57.95
1274.903,-57.48
1274.918,-57.63
1274.933,-57.83
1274.948,-58.03
1274.963,-57.76
1274.978,-57.4
1274.993,-57.61
1275.008,-57.72
1275.023,-57.71
1275.038,-57.58
1275.053,-57.41
1275.068,-57.38
1275.083,-57.83
1275.098,-57.52
1275.113,-57.29
1275.128,-57.33
1275.143,-57.45
1275.158,-57.61
1275.173,-57.33
1275.188,-57.26
1275.203,-57.48
1275.218,-57.64
1275.233,-57.7
1275.248,-57.33
1275.263,-57.31
1275.278,-57.53
1275.293,-57.68
1275.308,-57.65
1275.323,-57.53
1275.338,-57.57
1275.353,-58.05
1275.368,-58.2
1275.383,-57.97
1275.398,-57.9
1275.413,-57.85
1275.428,-58.36
1275.443,-58.47
1275.458,-58.15
1275.473,-57.96
1275.488,-58.11
1275.503,-58.48
1275.518,-58.66
1275.533,-58.3
1275.548,-58.25
1275.563,-58.45
1275.578,-58.96
1275.593,-58.94
1275.608,-58.67
1275.623,-58.67
1275.638,-59.28
1275.653,-59.25
1275.668,-59.17
1275.683,-58.98
1275.698,-59.04
1275.713,-59.75
1275.728,-60.0
1275.743,-59.47
1275.758,-59.31
1275.773,-59.29
1275.788,-59.9
1275.803,-59.86
1275.818,-59.28
1275.833,-59.46
1275.848,-59.88
1275.863,-60.46
1275.878,-60.25
1275.893,-59.86
1275.908,-59.93
1275.923,-60.11
1275.938,-60.26
1275.953,-59.79
1275.968,-59.64
1275.983,-59.79
1275.998,-60.03
1276.013,-60.03
1276.028,-59.72
1276.043,-59.57
1276.058,-59.87
1276.073,-60.41
1276.088,-59.8
1276.103,-59.49
1276.118,-59.49
1276.133,-59.76
1276.148,-59.86
1276.163,-59.28
1276.178,-58.93
1276.193,-59.27
1276.208,-59.46
1276.223,-59.54
1276.238,-58.96
1276.253,-58.93
1276.268,-59.3
1276.283,-59.54
1276.298,-59.35
1276.313,-58.87
1276.328,-58.83
1276.343,-59.45
1276.358,-59.1
1276.373,-58.77
1276.388,-58.48
1276.403,-58.47
1276.418,-58.88
1276.433,-58.68
1276.448,-58.22
1276.463,-58.11
1276.478,-58.33
1276.493,-58.66
1276.508,-58.59
1276.523,-58.0
1276.538,-57.87
1276.553,-58.15
1276.568,-58.48
1276.583,-58.13
1276.598,-57.78
1276.613,-58.12
1276.628,-58.38
1276.643,-58.36
1276.658,-58.2
1276.673,-57.94
1276.688,-58.4
1276.703,-58.73
1276.718,-58.46
1276.733,-57.97
1276.748,-58.06
1276.763,-58.58
1276.778,-58.96
1276.793,-58.56
1276.808,-57.93
1276.823,-58.25
1276.838,-58.52
1276.853,-58.68
1276.868,-58.22
1276.883,-57.86
1276.898,-58.24
1276.913,-58.62
1276.928,-58.3
1276.943,-58.14
1276.958,-58.01
1276.973,-58.59
1276.988,-58.82
1277.003,-58.15
1277.018,-58.08
1277.033,-57.97
1277.048,-58.5
1277.063,-58.19
1277.078,-57.94
1277.093,-57.78
1277.108,-58.05
1277.123,-58.59
1277.138,-58.13
1277.153,-58.05
1277.168,-58.48
1277.183,-59.08
1277.198,-59.15
1277.214,-58.75
1277.228,-58.71
1277.243,-59.16
1277.258,-59.87
1277.273,-59.73
1277.288,-59.25
1277.303,-59.44
1277.318,-59.75
1277.333,-60.55
1277.349,-59.83
1277.364,-59.45
1277.378,-60.0
1277.393,-60.31
1277.408,-60.87
1277.423,-60.25
1277.438,-59.76
1277.453,-60.45
1277.469,-60.49
1277.484,-60.2
1277.499,-59.74
1277.514,-59.6
1277.528,-60.17
1277.543,-60.17
1277.558,-60.16
1277.573,-59.48
1277.589,-59.95
1277.604,-60.5
1277.619,-59.91
1277.634,-59.81
1277.649,-59.1
1277.663,-59.61
1277.678,-59.91
1277.693,-59.21
1277.708,-58.98
1277.724,-59.33
1277.739,-59.7
1277.754,-59.64
1277.769,-59.27
1277.784,-59.21
1277.799,-59.34
1277.813,-60.03
1277.828,-59.47
1277.844,-59.48
1277.859,-59.4
1277.874,-59.4
1277.889,-59.73
1277.904,-59.17
1277.919,-59.03
1277.934,-59.54
1277.948,-59.57
1277.964,-59.65
1277.979,-59.05
1277.994,-59.17
1278.009,-59.7
1278.024,-59.47
1278.039,-59.49
1278.054,-58.9
1278.069,-59.41
1278.084,-59.6
1278.099,-59.7
1278.114,-59.51
1278.129,-59.09
1278.144,-59.75
1278.159,-59.79
1278.174,-59.38
1278.189,-59.21
1278.204,-58.96
1278.219,-59.54
1278.234,-59.32
1278.249,-59.06
1278.264,-58.89
1278.279,-58.92
1278.294,-59.39
1278.309,-59.0
1278.324,-58.87
1278.339,-58.66
1278.354,-58.74
1278.369,-59.14
1278.384,-58.65
1278.399,-58.49
1278.414,-58.48
1278.429,-58.42
1278.444,-58.52
1278.459,-58.17
1278.474,-58.26
1278.489,-58.7
1278.504,-58.54
1278.519,-58.52
1278.534,-58.12
1278.549,-58.69
1278.564,-58.69
1278.579,-58.67
1278.594,-58.66
1278.609,-58.28
1278.624,-58.71
1278.639,-58.54
1278.654,-58.66
1278.669,-58.76
1278.684,-58.6
1278.699,-59.15
1278.714,-58.94
1278.729,-58.53
1278.744,-58.72
1278.759,-59.0
1278.774,-59.26
1278.789,-58.69
1278.804,-58.54
1278.819,-58.57
1278.834,-59.04
1278.849,-59.05
1278.864,-58.54
1278.879,-58.73
1278.894,-58.94
1278.909,-58.94
1278.924,-58.92
1278.939,-58.45
1278.954,-58.63
1278.969,-58.71
1278.984,-58.6
1278.999,-58.29
1279.014,-57.92
1279.029,-58.36
1279.044,-58.59
1279.059,-58.51
1279.074,-58.21
1279.089,-58.12
1279.104,-58.56
1279.119,-58.62
1279.134,-58.49
1279.149,-58.26
1279.164,-58.33
1279.179,-58.82
1279.194,-58.43
1279.209,-58.4
1279.224,-58.29
1279.239,-58.41
1279.254,-58.74
1279.269,-58.45
1279.284,-58.42
1279.299,-58.37
1279.314,-58.69
1279.329,-58.93
1279.344,-58.51
1279.359,-58.53
1279.374,-58.86
1279.389,-59.38
1279.404,-59.43
1279.419,-58.96
1279.434,-59.05
1279.449,-59.49
1279.464,-59.52
1279.479,-59.28
1279.494,-58.8
1279.509,-59.38
1279.524,-59.77
1279.539,-59.74
1279.554,-59.17
1279.569,-59.13
1279.584,-59.89
1279.599,-59.68
1279.614,-59.54
1279.629,-58.99
1279.644,-59.04
1279.659,-59.74
1279.674,-59.24
1279.689,-58.96
1279.704,-58.38
1279.719,-58.88
1279.734,-59.35
1279.749,-58.76
1279.764,-58.4
1279.779,-58.54
1279.794,-58.83
1279.809,-59.15
1279.824,-58.75
1279.839,-58.51
1279.854,-58.84
1279.869,-59.18
1279.884,-59.14
1279.899,-58.55
1279.914,-58.78
1279.929,-59.21
1279.944,-59.61
1279.959,-59.2
1279.974,-58.81
1279.989,-59.3
1280.004,-59.78
1280.019,-59.73
1280.034,-59.42
1280.049,-59.01
1280.064,-59.76
1280.079,-60.02
1280.094,-59.83
1280.109,-59.28
1280.124,-59.19
1280.139,-59.9
1280.154,-59.61
1280.169,-59.42
1280.184,-58.85
1280.199,-59.02
1280.214,-59.71
1280.229,-59.14
1280.244,-58.97
1280.259,-58.61
1280.274,-58.92
1280.289,-59.17
1280.304,-58.65
1280.319,-58.39
1280.334,-58.56
1280.349,-58.99
1280.364,-59.13
1280.379,-58.49
1280.394,-58.2
1280.409,-58.4
1280.424,-58.84
1280.439,-58.7
1280.454,-58.33
1280.469,-58.63
1280.484,-58.93
1280.499,-59.4
1280.514,-58.85
1280.529,-58.59
1280.544,-58.92
1280.559,-59.14
1280.574,-59.31
1280.589,-58.57
1280.604,-58.5
1280.619,-59.07
1280.634,-58.99
1280.649,-58.88
1280.664,-58.36
1280.679,-58.58
1280.694,-59.12
1280.709,-59.34
1280.724,-59.04
1280.739,-58.62
1280.754,-59.16
1280.769,-59.53
1280.784,-59.17
1280.799,-58.96
1280.814,-58.69
1280.829,-59.05
1280.844,-59.24
1280.859,-58.65
1280.874,-58.57
1280.889,-58.87
1280.904,-59.34
1280.919,-59.26
1280.934,-58.76
1280.949,-58.78
1280.964,-58.95
1280.979,-59.6
1280.994,-59.15
1281.009,-58.74
1281.024,-59.35
1281.039,-59.61
1281.054,-60.15
1281.069,-59.42
1281.084,-59.36
1281.099,-60.02
1281.114,-60.23
1281.129,-60.19
1281.144,-59.54
1281.159,-59.75
1281.174,-60.26
1281.189,-60.35
1281.204,-60.3
1281.219,-59.49
1281.234,-59.94
1281.249,-60.41
1281.264,-60.14
1281.279,-60.13
1281.294,-59.71
1281.309,-60.37
1281.324,-60.33
1281.339,-59.76
1281.354,-59.73
1281.369,-59.87
1281.384,-60.44
1281.399,-60.04
1281.414,-59.88
1281.429,-59.79
1281.444,-59.86
1281.459,-60.32
1281.474,-59.72
1281.489,-59.45
1281.504,-59.64
1281.519,-59.54
1281.534,-59.51
1281.549,-59.14
1281.564,-59.39
1281.579,-59.34
1281.594,-59.34
1281.609,-59.58
1281.624,-58.94
1281.639,-59.44
1281.654,-59.96
1281.669,-59.85
1281.684,-59.83
1281.699,-59.33
1281.714,-59.78
1281.729,-59.66
1281.744,-59.71
1281.759,-59.47
1281.774,-59.55
1281.789,-59.8
1281.804,-59.82
1281.819,-59.71
1281.834,-59.71
1281.849,-59.72
1281.864,-59.62
1281.879,-59.42
1281.894,-59.07
1281.909,-59.09
1281.924,-58.91
1281.939,-58.89
1281.954,-58.85
1281.969,-58.64
1281.984,-58.62
1281.999,-58.56
1282.014,-58.56
1282.029,-58.43
1282.044,-58.41
1282.059,-58.38
1282.074,-58.29
1282.089,-58.33
1282.104,-58.2
1282.119,-58.25
1282.134,-58.45
1282.149,-58.42
1282.164,-58.43
1282.179,-58.47
1282.194,-58.31
1282.209,-58.18
1282.224,-58.34
1282.239,-58.38
1282.254,-58.31
1282.269,-58.51
1282.284,-58.24
1282.299,-58.22
1282.314,-58.31
1282.329,-58.42
1282.344,-58.45
1282.359,-58.46
1282.374,-58.52
1282.389,-58.58
1282.404,-58.7
1282.419,-58.6
1282.434,-58.56
1282.449,-58.71
1282.464,-58.2
1282.479,-58.29
1282.494,-58.37
1282.509,-58.31
1282.524,-58.41
1282.539,-58.26
1282.554,-58.85
1282.569,-58.79
1282.584,-58.57
1282.599,-58.55
1282.614,-58.6
1282.629,-59.05
1282.644,-58.98
1282.659,-58.76
1282.674,-58.85
1282.689,-58.88
1282.704,-59.55
1282.719,-58.93
1282.734,-59.08
1282.749,-59.07
1282.764,-59.23
1282.779,-59.13
1282.794,-58.58
1282.809,-58.34
1282.824,-58.39
1282.839,-58.43
1282.854,-58.26
1282.869,-58.27
1282.884,-58.36
1282.899,-58.91
1282.914,-58.82
1282.929,-58.74
1282.944,-58.84
1282.959,-58.9
1282.974,-59.46
1282.989,-59.32
1283.004,-59.28
1283.019,-59.53
1283.034,-59.8
1283.049,-59.92
1283.064,-59.0
1283.079,-59.21
1283.094,-59.16
1283.109,-59.52
1283.124,-59.26
1283.139,-58.6
1283.154,-58.84
1283.169,-58.98
1283.184,-59.0
1283.199,-58.91
1283.214,-58.91
1283.229,-59.32
1283.244,-59.6
1283.259,-59.47
1283.274,-59.25
1283.289,-59.28
1283.304,-60.12
1283.319,-59.81
1283.334,-59.88
1283.349,-59.79
1283.364,-59.66
1283.379,-59.86
1283.394,-59.19
1283.409,-58.97
1283.424,-59.03
1283.439,-58.95
1283.454,-58.86
1283.469,-58.86
1283.484,-58.92
1283.499,-59.58
1283.514,-59.24
1283.529,-59.32
1283.544,-59.37
1283.559,-58.95
1283.574,-59.24
1283.589,-59.26
1283.604,-59.65
1283.619,-59.49
1283.634,-59.18
1283.649,-59.45
1283.664,-59.02
1283.679,-59.19
1283.694,-59.15
1283.709,-58.71
1283.724,-59.14
1283.739,-58.86
1283.754,-58.85
1283.769,-58.6
1283.784,-58.48
1283.799,-58.81
1283.814,-58.68
1283.829,-58.9
1283.844,-59.3
1283.859,-59.51
1283.874,-59.6
1283.889,-59.61
1283.904,-59.31
1283.919,-59.36
1283.934,-59.62
1283.949,-59.74
1283.964,-59.48
1283.979,-59.51
1283.994,-59.37
1284.009,-59.16
1284.024,-59.21
1284.039,-58.87
1284.054,-58.87
1284.069,-59.19
1284.084,-58.87
1284.099,-59.28
1284.114,-58.9
1284.129,-59.08
1284.144,-59.17
1284.159,-59.08
1284.174,-59.33
1284.189,-59.04
1284.204,-59.37
1284.219,-59.42
1284.234,-59.18
1284.249,-59.14
1284.264,-58.86
1284.279,-59.23
1284.294,-59.25
1284.309,-58.81
1284.324,-59.05
1284.339,-58.7
1284.354,-58.71
1284.369,-58.72
1284.384,-58.49
1284.399,-58.77
1284.414,-58.61
1284.429,-58.68
1284.444,-58.97
1284.459,-58.97
1284.474,-59.25
1284.489,-59.23
1284.504,-58.88
1284.519,-59.25
1284.534,-59.16
1284.549,-59.19
1284.564,-59.42
1284.579,-59.15
1284.594,-59.27
1284.609,-58.75
1284.624,-58.79
1284.639,-58.96
1284.654,-58.87
1284.669,-58.95
1284.684,-58.58
1284.699,-58.82
1284.714,-58.67
1284.729,-58.71
1284.744,-58.68
1284.759,-58.62
1284.774,-58.86
1284.789,-59.14
1284.804,-59.24
1284.819,-59.35
1284.834,-59.26
1284.849,-59.26
1284.864,-58.96
1284.879,-59.11
1284.894,-58.93
1284.909,-59.08
1284.924,-59.09
1284.939,-58.79
1284.954,-58.53
1284.969,-58.67
1284.984,-58.36
1284.999,-58.37
1285.014,-58.4
1285.029,-58.33
1285.044,-58.62
1285.059,-58.47
1285.074,-58.6
1285.089,-58.67
1285.104,-58.62
1285.119,-58.89
1285.134,-58.57
1285.149,-58.77
1285.164,-58.74
1285.179,-58.68
1285.194,-58.87
1285.209,-58.49
1285.224,-58.56
1285.24,-58.45
1285.255,-58.47
1285.269,-58.79
1285.284,-58.42
1285.299,-58.39
1285.314,-58.45
1285.329,-58.48
1285.344,-58.4
1285.359,-58.31
1285.375,-58.55
1285.39,-58.89
1285.404,-58.8
1285.419,-58.87
1285.434,-59.04
1285.449,-59.04
1285.464,-58.89
1285.479,-58.96
1285.495,-58.88
1285.51,-59.11
1285.525,-59.09
1285.54,-58.81
1285.554,-58.57
1285.569,-58.56
1285.584,-58.72
1285.599,-58.68
1285.615,-58.66
1285.63,-58.63
1285.645,-58.95
1285.66,-58.82
1285.675,-58.91
1285.689,-58.9
1285.704,-58.65
1285.719,-59.26
1285.734,-59.0
1285.75,-58.98
1285.765,-58.88
1285.78,-59.09
1285.795,-59.32
1285.81,-58.75
1285.825,-58.75
1285.839,-58.92
1285.854,-58.8
1285.87,-59.18
1285.885,-58.53
1285.9,-58.77
1285.915,-58.8
1285.93,-58.86
1285.945,-58.81
1285.96,-58.78
1285.974,-58.96
1285.99,-59.69
1286.005,-59.5
1286.02,-59.49
1286.035,-59.41
1286.05,-59.53
1286.065,-59.91
1286.08,-59.26
1286.095,-59.4
1286.11,-59.4
1286.125,-59.43
1286.14,-59.5
1286.155,-59.03
1286.17,-59.1
1286.185,-59.13
1286.2,-59.31
1286.215,-59.15
1286.23,-58.75
1286.245,-59.21
1286.26,-59.2
1286.275,-59.16
1286.29,-58.73
1286.305,-58.69
1286.32,-59.23
1286.335,-59.07
1286.35,-59.16
1286.365,-59.1
1286.38,-59.15
1286.395,-59.35
1286.41,-59.05
1286.425,-58.73
1286.44,-58.82
1286.455,-58.64
1286.47,-59.09
1286.485,-58.6
1286.5,-58.54
1286.515,-58.5
1286.53,-58.48
1286.545,-58.71
1286.56,-58.57
1286.575,-58.71
1286.59,-59.01
1286.605,-58.64
1286.62,-58.79
1286.635,-58.67
1286.65,-58.51
1286.665,-58.82
1286.68,-58.43
1286.695,-58.33
1286.71,-58.44
1286.725,-58.29
1286.74,-58.57
1286.755,-58.23
1286.77,-58.36
1286.785,-58.6
1286.8,-58.31
1286.815,-58.61
1286.83,-58.47
1286.845,-58.5
1286.86,-59.03
1286.875,-58.59
1286.89,-58.78
1286.905,-58.51
1286.92,-58.65
1286.935,-58.7
1286.95,-58.37
1286.965,-58.21
1286.98,-58.45
1286.995,-58.16
1287.01,-58.29
1287.025,-58.03
1287.04,-58.08
1287.055,-58.4
1287.07,-58.06
1287.085,-58.23
1287.1,-57.97
1287.115,-58.22
1287.13,-58.39
1287.145,-58.12
1287.16,-58.11
1287.175,-58.07
1287.19,-58.49
1287.205,-58.36
1287.22,-58.08
1287.235,-58.3
1287.25,-58.57
1287.265,-58.83
1287.28,-58.41
1287.295,-58.41
1287.31,-58.67
1287.325,-58.92
1287.34,-58.62
1287.355,-58.18
1287.37,-58.33
1287.385,-58.58
1287.4,-58.53
1287.415,-58.17
1287.43,-58.22
1287.445,-58.55
1287.46,-59.0
1287.475,-58.61
1287.49,-58.39
1287.505,-58.57
1287.52,-59.19
1287.535,-59.05
1287.55,-58.55
1287.565,-58.49
1287.58,-58.69
1287.595,-58.68
1287.61,-58.38
1287.625,-58.09
1287.64,-58.56
1287.655,-58.92
1287.67,-58.76
1287.685,-58.34
1287.7,-58.56
1287.715,-59.07
1287.73,-59.18
1287.745,-58.94
1287.76,-58.62
1287.775,-59.06
1287.79,-59.39
1287.805,-59.21
1287.82,-58.69
1287.835,-58.6
1287.85,-58.89
1287.865,-58.83
1287.88,-58.45
1287.895,-58.14
1287.91,-58.69
1287.925,-59.02
1287.94,-58.79
1287.955,-58.53
1287.97,-58.9
1287.985,-59.24
1288.0,-59.1
1288.015,-58.58
1288.03,-58.44
1288.045,-58.75
1288.06,-58.84
1288.075,-58.41
1288.09,-58.24
1288.105,-58.81
1288.12,-59.13
1288.135,-59.0
1288.15,-58.61
1288.165,-58.81
1288.18,-59.6
1288.195,-59.34
1288.21,-58.8
1288.225,-58.74
1288.24,-59.15
1288.255,-59.15
1288.27,-58.57
1288.285,-58.37
1288.3,-58.4
1288.315,-58.87
1288.33,-58.58
1288.345,-58.39
1288.36,-58.49
1288.375,-58.89
1288.39,-58.81
1288.405,-58.53
1288.42,-58.46
1288.435,-58.87
1288.45,-58.94
1288.465,-58.46
1288.48,-58.25
1288.495,-58.28
1288.51,-58.59
1288.525,-58.31
1288.54,-58.04
1288.555,-57.93
1288.57,-58.48
1288.585,-58.77
1288.6,-58.43
1288.615,-58.4
1288.63,-58.72
1288.645,-58.82
1288.66,-58.55
1288.675,-58.15
1288.69,-58.3
1288.705,-58.7
1288.72,-58.53
1288.735,-58.37
1288.75,-58.27
1288.765,-58.89
1288.78,-59.03
1288.795,-58.57
1288.81,-58.3
1288.825,-58.48
1288.84,-58.96
1288.855,-58.71
1288.87,-58.28
1288.885,-58.28
1288.9,-58.77
1288.915,-58.73
1288.93,-58.3
1288.945,-58.2
1288.96,-58.23
1288.975,-58.65
1288.99,-58.16
1289.005,-58.03
1289.02,-58.22
1289.035,-58.66
1289.05,-58.54
1289.065,-58.15
1289.08,-58.29
1289.095,-58.72
1289.11,-58.59
1289.125,-58.25
1289.14,-57.94
1289.155,-58.12
1289.17,-58.45
1289.185,-58.11
1289.2,-57.81
1289.215,-57.93
1289.23,-58.34
1289.245,-58.45
1289.26,-57.87
1289.275,-57.9
1289.29,-58.29
1289.305,-58.64
1289.32,-58.23
1289.335,-57.9
1289.35,-58.18
1289.365,-58.6
1289.38,-58.1
1289.395,-58.03
1289.41,-58.11
1289.425,-58.47
1289.44,-58.69
1289.455,-58.17
1289.47,-58.23
1289.485,-58.59
1289.5,-58.67
1289.515,-58.21
1289.53,-57.99
1289.545,-58.23
1289.56,-58.74
1289.575,-58.24
1289.59,-57.79
1289.605,-57.96
1289.62,-58.09
1289.635,-58.43
1289.65,-57.89
1289.665,-57.9
1289.68,-58.26
1289.695,-58.5
1289.71,-58.47
1289.725,-58.06
1289.74,-58.22
1289.755,-58.49
1289.77,-58.16
1289.785,-57.81
1289.8,-57.77
1289.815,-57.96
1289.83,-58.26
1289.845,-57.73
1289.86,-57.79
1289.875,-58.23
1289.89,-58.34
1289.905,-58.27
1289.92,-57.85
1289.935,-57.85
1289.95,-58.21
1289.965,-58.3
1289.98,-57.93
1289.995,-57.74
1290.01,-58.02
1290.025,-58.37
1290.04,-57.9
1290.055,-57.92
1290.07,-58.12
1290.085,-58.44
1290.1,-58.3
1290.115,-57.86
1290.13,-57.86
1290.145,-58.23
1290.16,-58.17
1290.175,-57.84
1290.19,-57.56
1290.205,-57.83
1290.22,-58.21
1290.235,-57.92
1290.25,-57.51
1290.265,-57.86
1290.28,-58.24
1290.295,-58.27
1290.31,-57.92
1290.325,-57.94
1290.34,-58.47
1290.355,-58.39
1290.37,-58.12
1290.385,-58.08
1290.4,-58.13
1290.415,-58.35
1290.43,-58.03
1290.445,-57.54
1290.46,-57.81
1290.475,-57.93
1290.49,-57.89
1290.505,-57.79
1290.52,-57.79
1290.535,-58.09
1290.55,-58.25
1290.565,-58.15
1290.58,-58.03
1290.595,-58.3
1290.61,-58.45
1290.625,-58.5
1290.64,-57.98
1290.655,-58.37
1290.67,-58.56
1290.685,-58.64
1290.7,-58.41
1290.715,-58.06
1290.73,-58.36
1290.745,-58.6
1290.76,-57.99
1290.775,-57.99
1290.79,-58.12
1290.805,-58.42
1290.82,-58.4
1290.835,-57.94
1290.85,-58.31
1290.865,-58.73
1290.88,-58.63
1290.895,-58.43
1290.91,-58.11
1290.925,-58.42
1290.94,-58.78
1290.955,-58.26
1290.97,-58.26
1290.985,-58.23
1291.0,-58.89
1291.015,-58.78
1291.03,-58.25
1291.045,-58.63
1291.06,-58.67
1291.075,-58.33
1291.09,-58.16
1291.105,-57.97
1291.12,-58.38
1291.135,-58.62
1291.15,-58.06
1291.165,-58.24
1291.18,-58.5
1291.195,-59.03
1291.21,-58.91
1291.225,-58.22
1291.24,-58.58
1291.255,-59.03
1291.27,-58.57
1291.285,-58.52
1291.3,-58.14
1291.315,-58.59
1291.33,-58.78
1291.345,-58.2
1291.36,-58.24
1291.375,-58.49
1291.39,-58.37
1291.405,-58.53
1291.42,-58.11
1291.435,-58.33
1291.45,-58.68
1291.465,-58.19
1291.48,-58.26
1291.495,-57.95
1291.51,-58.15
1291.525,-58.43
1291.54,-58.14
1291.555,-58.16
1291.57,-58.17
1291.585,-58.09
1291.6,-58.23
1291.615,-57.77
1291.63,-57.86
1291.645,-58.25
1291.66,-57.83
1291.675,-57.79
1291.69,-57.73
1291.705,-57.89
1291.72,-58.16
1291.735,-57.72
1291.75,-57.62
1291.765,-58.1
1291.78,-58.02
1291.795,-58.1
1291.81,-57.59
1291.825,-57.65
1291.84,-58.09
1291.855,-57.79
1291.87,-57.53
1291.885,-57.44
1291.9,-57.54
1291.915,-57.87
1291.93,-57.63
1291.945,-57.53
1291.96,-57.93
1291.975,-57.9
1291.99,-57.85
1292.005,-57.64
1292.02,-57.7
1292.035,-58.07
1292.05,-57.61
1292.065,-57.51
1292.08,-57.88
1292.095,-57.99
1292.11,-57.83
1292.125,-57.63
1292.14,-57.66
1292.155,-58.03
1292.17,-57.83
1292.185,-57.7
1292.2,-57.66
1292.215,-57.71
1292.23,-58.15
1292.245,-57.85
1292.26,-57.62
1292.275,-58.1
1292.29,-57.95
1292.305,-58.02
1292.32,-57.78
1292.335,-57.73
1292.35,-58.18
1292.365,-58.05
1292.38,-57.69
1292.395,-58.08
1292.41,-58.12
1292.425,-58.18
1292.44,-58.0
1292.455,-57.81
1292.47,-58.36
1292.485,-58.42
1292.5,-58.39
1292.515,-58.23
1292.53,-58.42
1292.545,-58.84
1292.56,-58.69
1292.575,-58.34
1292.59,-58.88
1292.605,-58.62
1292.62,-58.61
1292.635,-58.74
1292.65,-58.39
1292.665,-58.84
1292.68,-58.86
1292.695,-58.33
1292.71,-58.35
1292.725,-58.22
1292.74,-58.78
1292.755,-58.54
1292.77,-58.12
1292.785,-58.51
1292.8,-58.56
1292.815,-58.66
1292.83,-58.83
1292.845,-58.64
1292.86,-59.15
1292.875,-59.28
1292.89,-58.87
1292.905,-58.87
1292.92,-59.03
1292.935,-58.91
1292.95,-58.95
1292.965,-58.43
1292.98,-58.6
1292.995,-58.96
1293.01,-58.64
1293.025,-58.71
1293.04,-58.84
1293.055,-59.2
1293.07,-59.49
1293.085,-59.0
1293.1,-58.89
1293.115,-59.44
1293.13,-59.27
1293.145,-59.06
1293.16,-58.71
1293.175,-58.94
1293.19,-59.22
1293.205,-58.79
1293.22,-58.81
1293.235,-59.08
1293.25,-59.05
1293.266,-59.08
1293.281,-58.47
1293.295,-58.48
1293.31,-58.91
1293.325,-58.59
1293.34,-58.49
1293.355,-58.47
1293.37,-58.73
1293.385,-59.14
1293.401,-58.55
1293.416,-58.4
1293.43,-58.91
1293.445,-58.96
1293.46,-58.91
1293.475,-58.49
1293.49,-58.55
1293.505,-58.98
1293.521,-58.86
1293.536,-58.48
1293.551,-58.45
1293.566,-58.68
1293.58,-59.01
1293.595,-58.32
1293.61,-58.22
1293.625,-58.94
1293.641,-58.71
1293.656,-58.59
1293.671,-58.29
1293.686,-58.28
1293.701,-59.01
1293.715,-58.68
1293.73,-58.57
1293.745,-58.63
1293.76,-58.94
1293.776,-58.95
1293.791,-58.58
1293.806,-58.38
1293.821,-58.92
1293.836,-58.83
1293.851,-58.5
1293.865,-58.23
1293.88,-58.5
1293.896,-58.94
1293.911,-58.79
1293.926,-58.26
1293.941,-58.75
1293.956,-58.92
1293.971,-58.98
1293.986,-58.77
1294.001,-58.37
1294.016,-58.98
1294.031,-59.03
1294.046,-58.39
1294.061,-58.14
1294.076,-58.38
1294.091,-59.0
1294.106,-58.92
1294.121,-58.48
1294.136,-58.83
1294.151,-59.29
1294.166,-59.16
1294.181,-58.95
1294.196,-58.67
1294.211,-59.09
1294.226,-59.22
1294.241,-58.43
1294.256,-58.42
1294.271,-58.84
1294.286,-58.83
1294.301,-59.03
1294.316,-58.46
1294.331,-58.69
1294.346,-59.25
1294.361,-58.7
1294.376,-58.49
1294.391,-58.53
1294.406,-58.91
1294.421,-59.29
1294.436,-58.64
1294.451,-58.73
1294.466,-59.25
1294.481,-59.27
1294.496,-58.98
1294.511,-58.51
1294.526,-58.68
1294.541,-59.18
1294.556,-58.71
1294.571,-58.54
1294.586,-58.52
1294.601,-58.59
1294.616,-59.03
1294.631,-58.41
1294.646,-58.16
1294.661,-58.78
1294.676,-58.72
1294.691,-58.62
1294.706,-58.39
1294.721,-58.5
1294.736,-59.02
1294.751,-58.48
1294.766,-58.08
1294.781,-58.44
1294.796,-58.63
1294.811,-58.59
1294.826,-58.21
1294.841,-57.91
1294.856,-58.43
1294.871,-58.35
1294.886,-57.95
1294.901,-57.79
1294.916,-57.97
1294.931,-58.37
1294.946,-58.02
1294.961,-57.64
1294.976,-57.92
1294.991,-57.99
1295.006,-58.02
1295.021,-57.89
1295.036,-57.87
1295.051,-58.31
1295.066,-58.29
1295.081,-57.84
1295.096,-57.57
1295.111,-57.72
1295.126,-57.73
1295.141,-57.48
1295.156,-57.16
1295.171,-57.49
1295.186,-57.66
1295.201,-57.63
1295.216,-57.49
1295.231,-57.76
1295.246,-58.11
1295.261,-58.23
1295.276,-57.73
1295.291,-57.97
1295.306,-58.18
1295.321,-58.22
1295.336,-58.23
1295.351,-57.84
1295.366,-58.45
1295.381,-58.47
1295.396,-58.06
1295.411,-57.96
1295.426,-58.01
1295.441,-58.35
1295.456,-58.26
1295.471,-57.8
1295.486,-58.0
1295.501,-58.11
1295.516,-58.1
1295.531,-58.13
1295.546,-58.11
1295.561,-58.51
1295.576,-58.63
1295.591,-58.14
1295.606,-58.4
1295.621,-58.38
1295.636,-58.35
1295.651,-58.52
1295.666,-58.11
1295.681,-58.34
1295.696,-58.84
1295.711,-58.49
1295.726,-58.63
1295.741,-58.59
1295.756,-58.64
1295.771,-58.72
1295.786,-58.4
1295.801,-58.28
1295.816,-58.64
1295.831,-58.52
1295.846,-58.75
1295.861,-58.8
1295.876,-58.77
1295.891,-58.84
1295.906,-58.68
1295.921,-58.52
1295.936,-58.64
1295.951,-58.5
1295.966,-58.65
1295.981,-58.81
1295.996,-58.89
1296.011,-59.47
1296.026,-59.26
1296.041,-59.09
1296.056,-59.08
1296.071,-59.25
1296.086,-59.32
1296.101,-59.34
1296.116,-59.4
1296.131,-59.63
1296.146,-59.77
1296.161,-59.69
1296.176,-59.52
1296.191,-59.8
1296.206,-59.82
1296.221,-60.04
1296.236,-59.99
1296.251,-59.73
1296.266,-59.83
1296.281,-59.85
1296.296,-60.01
1296.311,-60.16
1296.326,-60.16
1296.341,-59.97
1296.356,-60.63
1296.371,-59.99
1296.386,-60.43
1296.401,-60.43
1296.416,-60.52
1296.431,-60.37
1296.446,-59.97
1296.461,-59.61
1296.476,-59.76
1296.491,-59.51
1296.506,-59.78
1296.521,-59.92
1296.536,-59.86
1296.551,-59.96
1296.566,-59.86
1296.581,-59.38
1296.596,-59.66
1296.611,-59.48
1296.626,-59.53
1296.641,-59.61
1296.656,-59.48
1296.671,-59.64
1296.686,-59.84
1296.701,-59.22
1296.716,-59.46
1296.731,-59.29
1296.746,-59.01
1296.761,-59.25
1296.776,-59.06
1296.791,-59.19
1296.806,-59.81
1296.821,-59.42
1296.836,-59.62
1296.851,-59.58
1296.866,-59.27
1296.881,-59.74
1296.896,-59.62
1296.911,-59.62
1296.926,-60.12
1296.941,-59.87
1296.956,-60.38
1296.971,-60.55
1296.986,-60.2
1297.001,-60.3
1297.016,-59.9
1297.031,-59.58
1297.046,-59.85
1297.061,-59.4
1297.076,-59.48
1297.091,-59.57
1297.106,-59.45
1297.121,-59.26
1297.136,-59.29
1297.151,-58.96
1297.166,-59.09
1297.181,-58.95
1297.196,-58.85
1297.211,-59.05
1297.226,-58.99
1297.241,-58.73
1297.256,-58.99
1297.271,-58.74
1297.286,-58.87
1297.301,-58.57
1297.316,-58.29
1297.331,-58.59
1297.346,-58.62
1297.361,-58.29
1297.376,-58.58
1297.391,-58.34
1297.406,-58.55
1297.421,-58.36
1297.436,-58.21
1297.451,-58.37
1297.466,-58.45
1297.481,-58.47
1297.496,-58.82
1297.511,-58.7
1297.526,-58.95
1297.541,-58.92
1297.556,-58.78
1297.571,-58.64
1297.586,-58.79
1297.601,-58.73
1297.616,-58.92
1297.631,-59.11
1297.646,-59.2
1297.661,-59.42
1297.676,-59.27
1297.691,-58.94
1297.706,-59.35
1297.721,-58.97
1297.736,-59.18
1297.751,-59.09
1297.766,-59.0
1297.781,-59.32
1297.796,-59.31
1297.811,-58.77
1297.826,-59.07
1297.841,-58.82
1297.856,-58.9
1297.871,-58.78
1297.886,-58.37
1297.901,-58.78
1297.916,-58.88
1297.931,-58.61
1297.946,-58.89
1297.961,-58.52
1297.976,-58.2
1297.991,-58.13
1298.006,-57.89
1298.021,-58.04
1298.036,-58.15
1298.051,-57.91
1298.066,-58.15
1298.081,-58.14
1298.096,-58.28
1298.111,-58.3
1298.126,-58.23
1298.141,-58.29
1298.156,-58.5
1298.171,-58.46
1298.186,-58.71
1298.201,-58.91
1298.216,-58.98
1298.231,-59.04
1298.246,-58.82
1298.261,-58.68
1298.276,-58.97
1298.291,-58.62
1298.306,-58.83
1298.321,-59.12
1298.336,-58.75
1298.351,-58.92
1298.366,-59.17
1298.381,-58.78
1298.396,-58.95
1298.411,-58.71
1298.426,-58.78
1298.441,-59.0
1298.456,-58.64
1298.471,-59.03
1298.486,-59.04
1298.501,-58.74
1298.516,-59.06
1298.531,-58.69
1298.546,-58.58
1298.561,-58.66
1298.576,-58.33
1298.591,-58.39
1298.606,-58.5
1298.621,-58.38
1298.636,-58.18
1298.651,-58.17
1298.666,-57.92
1298.681,-58.2
1298.696,-58.02
1298.711,-57.99
1298.726,-58.36
1298.741,-58.21
1298.756,-58.16
1298.771,-58.34
1298.786,-58.09
1298.801,-58.46
1298.816,-58.37
1298.831,-58.12
1298.846,-58.51
1298.861,-58.44
1298.876,-58.61
1298.891,-58.91
1298.906,-58.75
1298.921,-58.94
1298.936,-58.91
1298.951,-58.53
1298.966,-58.6
1298.981,-58.86
1298.996,-58.86
1299.011,-59.17
1299.026,-58.84
1299.041,-59.13
1299.056,-59.5
1299.071,-59.21
1299.086,-59.35
1299.101,-59.26
1299.116,-59.13
1299.131,-59.2
1299.146,-58.69
1299.161,-58.89
1299.176,-59.1
1299.191,-59.06
1299.206,-58.7
1299.221,-58.69
1299.236,-58.57
1299.251,-58.55
1299.266,-58.33
1299.281,-58.07
1299.296,-58.38
1299.311,-58.43
1299.326,-58.09
1299.341,-58.27
1299.356,-58.09
1299.371,-58.22
1299.386,-58.22
1299.401,-57.98
1299.416,-58.23
1299.431,-58.35
1299.446,-58.09
1299.461,-58.42
1299.476,-58.38
1299.491,-58.62
1299.506,-58.71
1299.521,-58.3
1299.536,-58.31
1299.551,-58.62
1299.566,-58.36
1299.581,-58.64
1299.596,-58.81
1299.611,-58.7
1299.626,-58.87
1299.641,-58.71
1299.656,-58.63
1299.671,-59.01
1299.686,-58.62
1299.701,-58.79
1299.716,-58.97
1299.731,-58.79
1299.746,-59.08
1299.761,-59.26
1299.776,-58.89
1299.791,-59.33
1299.806,-58.86
1299.821,-58.96
1299.836,-59.32
1299.851,-58.97
1299.866,-58.76
1299.881,-58.91
1299.896,-58.53
1299.911,-58.59
1299.926,-58.43
1299.941,-58.35
1299.956,-58.53
1299.971,-58.7
1299.986,-58.4
1300.001,-58.43
1300.016,-58.29
1300.031,-58.39
1300.046,-58.35
1300.061,-58.01
1300.076,-58.24
1300.091,-58.41
1300.106,-58.23
1300.121,-58.18
1300.136,-58.23
1300.151,-58.41
1300.166,-58.54
1300.181,-58.23
1300.196,-58.14
1300.211,-58.36
1300.226,-58.21
1300.241,-57.95
1300.256,-58.09
1300.271,-58.28
1300.286,-58.43
1300.301,-58.27
1300.316,-58.09
1300.331,-58.54
1300.346,-58.6
1300.361,-58.52
1300.376,-58.11
1300.391,-58.3
1300.406,-58.54
1300.421,-58.48
1300.436,-58.18
1300.451,-58.39
1300.466,-58.57
1300.481,-58.36
1300.496,-57.82
1300.511,-57.89
1300.526,-58.3
1300.541,-58.36
1300.556,-58.09
1300.571,-58.16
1300.586,-58.36
1300.601,-58.33
1300.616,-58.12
1300.631,-58.1
1300.646,-58.15
1300.661,-58.36
1300.676,-57.97
1300.691,-57.93
1300.706,-58.17
1300.721,-58.34
1300.736,-58.04
1300.751,-57.64
1300.766,-57.73
1300.781,-57.9
1300.796,-57.76
1300.811,-57.61
1300.826,-57.52
1300.841,-57.73
1300.856,-57.64
1300.871,-57.64
1300.886,-57.54
1300.901,-57.64
1300.916,-57.86
1300.931,-57.66
1300.946,-57.67
1300.961,-57.89
1300.976,-57.75
1300.991,-57.58
1301.006,-57.66
1301.021,-57.82
1301.036,-58.09
1301.051,-57.85
1301.066,-57.73
1301.081,-57.91
1301.096,-58.04
1301.111,-58.09
1301.126,-58.1
1301.141,-57.97
1301.156,-58.41
1301.171,-58.2
1301.186,-58.01
1301.201,-58.21
1301.216,-58.59
1301.231,-58.48
1301.246,-58.68
1301.261,-58.52
1301.276,-58.64
1301.292,-58.87
1301.307,-58.52
1301.321,-58.64
1301.336,-58.8
1301.351,-58.44
1301.366,-58.67
1301.381,-58.73
1301.396,-58.61
1301.411,-58.83
1301.427,-58.52
1301.442,-58.49
1301.457,-58.43
1301.471,-58.31
1301.486,-58.37
1301.501,-58.44
1301.516,-58.43
1301.531,-58.51
1301.547,-58.36
1301.562,-58.06
1301.577,-58.11
1301.592,-57.96
1301.606,-58.01
1301.621,-58.16
1301.636,-57.87
1301.651,-58.29
1301.667,-58.28
1301.682,-57.89
1301.697,-58.05
1301.712,-58.09
1301.727,-58.03
1301.742,-58.15
1301.756,-58.06
1301.771,-58.1
1301.786,-58.39
1301.802,-58.0
1301.817,-57.85
1301.832,-58.3
1301.847,-58.13
1301.862,-58.24
1301.877,-58.12
1301.891,-58.17
1301.906,-58.69
1301.922,-58.26
1301.937,-58.02
1301.952,-58.21
1301.967,-58.51
1301.982,-58.61
1301.997,-58.52
1302.012,-58.47
1302.027,-58.6
1302.042,-58.7
1302.057,-58.25
1302.072,-58.31
1302.087,-58.77
1302.102,-58.44
1302.117,-58.2
1302.132,-57.93
1302.147,-58.32
1302.162,-58.53
1302.177,-58.13
1302.192,-58.05
1302.207,-58.4
1302.222,-58.32
1302.237,-58.41
1302.252,-58.05
1302.267,-58.16
1302.282,-58.74
1302.297,-58.42
1302.312,-58.25
1302.327,-58.41
1302.342,-58.53
1302.357,-58.29
1302.372,-57.95
1302.387,-57.78
1302.402,-58.27
1302.417,-58.08
1302.432,-57.72
1302.447,-57.82
1302.462,-58.32
1302.477,-58.35
1302.492,-57.84
1302.507,-57.71
1302.522,-58.05
1302.537,-58.13
1302.552,-57.72
1302.567,-57.73
1302.582,-58.12
1302.597,-58.56
1302.612,-58.12
1302.627,-57.87
1302.642,-58.13
1302.657,-58.36
1302.672,-58.03
1302.687,-58.02
1302.702,-58.11
1302.717,-58.62
1302.732,-58.18
1302.747,-57.86
1302.762,-57.94
1302.777,-58.23
1302.792,-58.07
1302.807,-57.85
1302.822,-58.12
1302.837,-58.37
1302.852,-58.35
1302.867,-57.8
1302.882,-58.01
1302.897,-58.15
1302.912,-58.32
1302.927,-58.16
1302.942,-58.11
1302.957,-58.56
1302.972,-58.44
1302.987,-57.72
1303.002,-57.75
1303.017,-58.16
1303.032,-58.46
1303.047,-58.0
1303.062,-58.07
1303.077,-58.45
1303.092,-58.47
1303.107,-58.13
1303.122,-57.86
1303.137,-58.37
1303.152,-58.54
1303.167,-58.37
1303.182,-58.17
1303.197,-58.42
1303.212,-58.64
1303.227,-58.5
1303.242,-58.06
1303.257,-58.21
1303.272,-58.71
1303.287,-58.56
1303.302,-58.23
1303.317,-58.15
1303.332,-58.45
1303.347,-58.28
1303.362,-58.23
1303.377,-58.22
1303.392,-58.8
1303.407,-58.48
1303.422,-58.6
1303.437,-58.71
1303.452,-58.83
1303.467,-58.91
1303.482,-58.54
1303.497,-58.59
1303.512,-59.07
1303.527,-59.26
1303.542,-58.59
1303.557,-58.59
1303.572,-58.78
1303.587,-58.99
1303.602,-58.71
1303.617,-58.68
1303.632,-58.76
1303.647,-59.22
1303.662,-58.68
1303.677,-58.4
1303.692,-58.92
1303.707,-59.2
1303.722,-59.03
1303.737,-58.77
1303.752,-58.75
1303.767,-59.46
1303.782,-59.47
1303.797,-58.96
1303.812,-59.42
1303.827,-59.73
1303.842,-59.12
1303.857,-58.96
1303.872,-59.03
1303.887,-59.17
1303.902,-59.37
1303.917,-58.54
1303.932,-58.75
1303.947,-59.53
1303.962,-58.91
1303.977,-58.49
1303.992,-58.95
1304.007,-59.13
1304.022,-59.23
1304.037,-58.69
1304.052,-58.59
1304.067,-59.13
1304.082,-59.21
1304.097,-58.61
1304.112,-58.84
1304.127,-59.52
1304.142,-59.05
1304.157,-58.96
1304.172,-58.38
1304.187,-58.72
1304.202,-59.07
1304.217,-58.59
1304.232,-58.32
1304.247,-58.67
1304.262,-58.72
1304.277,-58.35
1304.292,-58.15
1304.307,-58.05
1304.322,-58.56
1304.337,-58.42
1304.352,-58.03
1304.367,-58.37
1304.382,-58.69
1304.397,-58.21
1304.412,-58.18
1304.427,-58.25
1304.442,-58.4
1304.457,-58.63
1304.472,-58.02
1304.487,-58.17
1304.502,-58.76
1304.517,-58.4
1304.532,-58.04
1304.547,-58.43
1304.562,-58.69
1304.577,-58.57
1304.592,-58.34
1304.607,-58.18
1304.622,-58.58
1304.637,-58.59
1304.652,-57.99
1304.667,-58.22
1304.682,-58.75
1304.697,-58.26
1304.712,-58.03
1304.727,-58.03
1304.742,-58.26
1304.757,-58.78
1304.772,-58.32
1304.787,-58.07
1304.802,-58.63
1304.817,-58.54
1304.832,-58.1
1304.847,-58.57
1304.862,-58.9
1304.877,-58.83
1304.892,-58.56
1304.907,-58.65
1304.922,-59.04
1304.937,-59.17
1304.952,-58.53
1304.967,-58.63
1304.982,-59.32
1304.997,-59.05
1305.012,-58.81
1305.027,-58.8
1305.042,-59.16
1305.057,-59.11
1305.072,-58.67
1305.087,-58.38
1305.102,-58.82
1305.117,-58.94
1305.132,-58.39
1305.147,-58.52
1305.162,-58.71
1305.177,-58.74
1305.192,-58.55
1305.207,-58.46
1305.222,-58.67
1305.237,-59.2
1305.252,-58.62
1305.267,-58.44
1305.282,-59.02
1305.297,-58.86
1305.312,-58.68
1305.327,-58.47
1305.342,-58.89
1305.357,-58.95
1305.372,-58.89
1305.387,-58.44
1305.402,-58.83
1305.417,-59.45
1305.432,-58.91
1305.447,-58.7
1305.462,-58.89
1305.477,-59.25
1305.492,-59.03
1305.507,-58.58
1305.522,-58.53
1305.537,-59.16
1305.552,-58.93
1305.567,-58.46
1305.582,-58.99
1305.597,-59.21
1305.612,-59.02
1305.627,-58.67
1305.642,-58.41
1305.657,-59.05
1305.672,-59.23
1305.687,-58.54
1305.702,-58.72
1305.717,-59.44
1305.732,-59.01
1305.747,-58.84
1305.762,-58.82
1305.777,-58.91
1305.792,-59.34
1305.807,-58.66
1305.822,-58.48
1305.837,-59.1
1305.852,-58.91
1305.867,-58.09
1305.882,-58.36
1305.897,-58.98
1305.912,-59.1
1305.927,-58.74
1305.942,-58.37
1305.957,-58.8
1305.972,-59.12
1305.987,-58.36
1306.002,-58.36
1306.017,-59.07
1306.032,-58.88
1306.047,-58.71
1306.062,-58.55
1306.077,-58.77
1306.092,-59.4
1306.107,-58.95
1306.122,-58.74
1306.137,-59.12
1306.152,-59.48
1306.167,-59.15
1306.182,-59.06
1306.197,-59.15
1306.212,-59.43
1306.227,-59.11
1306.242,-58.46
1306.257,-58.87
1306.272,-59.4
1306.287,-58.83
1306.302,-58.67
1306.317,-58.89
1306.332,-59.42
1306.347,-59.19
1306.362,-58.96
1306.377,-58.79
1306.392,-59.51
1306.407,-59.27
1306.422,-58.55
1306.437,-58.48
1306.452,-58.77
1306.467,-58.76
1306.482,-58.39
1306.497,-58.39
1306.512,-58.63
1306.527,-59.03
1306.542,-58.56
1306.557,-58.65
1306.572,-59.0
1306.587,-59.14
1306.602,-58.55
1306.617,-58.59
1306.632,-58.89
1306.647,-59.22
1306.662,-58.73
1306.677,-58.58
1306.692,-59.23
1306.707,-59.26
1306.722,-58.9
1306.737,-58.69
1306.752,-59.01
1306.767,-58.91
1306.782,-58.66
1306.797,-58.26
1306.812,-58.69
1306.827,-58.97
1306.842,-58.56
1306.857,-58.55
1306.872,-59.0
1306.887,-59.48
1306.902,-58.93
1306.917,-58.33
1306.932,-58.57
1306.947,-59.24
1306.962,-58.69
1306.977,-58.44
1306.992,-59.21
1307.007,-59.31
1307.022,-59.0
1307.037,-58.7
1307.052,-58.57
1307.067,-59.22
1307.082,-59.0
1307.097,-58.37
1307.112,-58.58
1307.127,-58.93
1307.142,-58.55
1307.157,-58.38
1307.172,-58.07
1307.187,-58.43
1307.202,-58.75
1307.217,-58.17
1307.232,-58.26
1307.247,-58.93
1307.262,-58.67
1307.277,-58.12
1307.292,-58.43
1307.307,-58.64
1307.322,-59.08
1307.337,-58.61
1307.352,-58.26
1307.367,-58.65
1307.382,-58.96
1307.397,-58.32
1307.412,-58.35
1307.427,-58.94
1307.442,-58.81
1307.457,-58.85
1307.472,-58.32
1307.487,-58.57
1307.502,-58.96
1307.517,-58.54
1307.532,-58.3
1307.547,-58.81
1307.562,-58.65
1307.577,-58.43
1307.592,-58.37
1307.607,-58.73
1307.622,-58.69
1307.637,-58.43
1307.652,-58.17
1307.667,-58.67
1307.682,-59.01
1307.697,-58.29
1307.712,-58.2
1307.727,-58.45
1307.742,-58.43
1307.757,-58.23
1307.772,-58.1
1307.787,-58.47
1307.802,-58.56
1307.817,-58.37
1307.832,-58.16
1307.847,-58.57
1307.862,-58.29
1307.877,-58.03
1307.892,-57.94
1307.907,-58.28
1307.922,-58.15
1307.937,-58.2
1307.952,-58.21
1307.967,-58.34
1307.982,-58.27
1307.997,-57.7
1308.012,-57.71
1308.027,-57.84
1308.042,-57.93
1308.057,-57.85
1308.072,-57.62
1308.087,-57.9
1308.102,-57.93
1308.117,-57.85
1308.132,-58.03
1308.147,-58.02
1308.162,-57.74
1308.177,-57.69
1308.192,-57.63
1308.207,-57.8
1308.222,-57.85
1308.237,-57.86
1308.252,-57.72
1308.267,-57.89
1308.282,-58.0
1308.297,-57.81
1308.312,-57.99
1308.327,-57.52
1308.342,-57.45
1308.357,-57.45
1308.372,-57.37
1308.387,-57.43
1308.402,-57.44
1308.417,-57.34
1308.432,-57.26
1308.447,-57.44
1308.462,-57.38
1308.477,-57.56
1308.492,-57.84
1308.507,-57.53
1308.522,-57.54
1308.537,-57.59
1308.552,-57.4
1308.567,-57.58
1308.582,-57.57
1308.597,-57.36
1308.612,-57.3
1308.627,-57.4
1308.642,-57.28
1308.657,-57.43
1308.672,-57.66
1308.687,-57.58
1308.702,-57.6
1308.717,-57.74
1308.732,-57.59
1308.747,-57.81
1308.762,-57.81
1308.777,-57.79
1308.792,-57.75
1308.807,-57.83
1308.822,-57.66
1308.837,-57.71
1308.852,-57.43
1308.867,-57.68
1308.882,-57.96
1308.897,-57.69
1308.912,-57.61
1308.927,-58.01
1308.942,-57.86
1308.957,-57.47
1308.972,-57.63
1308.987,-57.84
1309.002,-58.13
1309.017,-57.96
1309.032,-57.76
1309.047,-58.06
1309.062,-58.08
1309.077,-57.8
1309.092,-57.73
1309.107,-58.02
1309.122,-58.0
1309.137,-57.5
1309.152,-57.38
1309.167,-57.91
1309.182,-58.25
1309.198,-58.02
1309.212,-57.73
1309.227,-58.06
1309.242,-57.94
1309.257,-57.74
1309.272,-57.64
1309.287,-57.88
1309.302,-58.19
1309.318,-57.67
1309.333,-57.68
1309.347,-58.2
1309.362,-58.43
1309.377,-58.21
1309.392,-57.97
1309.407,-58.38
1309.422,-58.46
1309.438,-58.25
1309.453,-58.05
1309.468,-58.22
1309.483,-58.61
1309.497,-57.99
1309.512,-58.06
1309.527,-58.54
1309.542,-58.65
1309.557,-58.32
1309.573,-58.11
1309.588,-58.46
1309.603,-59.0
1309.618,-58.65
1309.632,-58.43
1309.647,-58.95
1309.662,-59.34
1309.677,-58.7
1309.693,-58.33
1309.708,-58.62
1309.723,-58.67
1309.738,-58.39
1309.753,-58.36
1309.768,-58.61
1309.782,-59.02
1309.797,-58.61
1309.813,-58.41
1309.828,-58.83
1309.843,-59.03
1309.858,-58.83
1309.873,-58.52
1309.888,-58.71
1309.903,-58.88
1309.917,-58.48
1309.932,-58.44
1309.948,-58.72
1309.963,-59.15
1309.978,-58.61
1309.993,-58.42
1310.008,-58.58
1310.023,-58.87
1310.038,-58.71
1310.053,-58.42
1310.068,-58.61
1310.083,-58.89
1310.098,-58.73
1310.113,-58.73
1310.128,-59.02
1310.143,-59.36
1310.158,-59.29
1310.173,-58.95
1310.188,-59.08
1310.203,-59.23
1310.218,-59.02
1310.233,-58.83
1310.248,-59.48
1310.263,-59.23
1310.278,-59.06
1310.293,-59.18
1310.308,-59.04
1310.323,-59.55
1310.338,-59.46
1310.353,-59.07
1310.368,-59.36
1310.383,-59.56
1310.398,-59.33
1310.413,-58.93
1310.428,-59.51
1310.443,-59.21
1310.458,-59.33
1310.473,-59.7
1310.488,-59.64
1310.503,-59.75
1310.518,-59.5
1310.533,-59.04
1310.548,-59.32
1310.563,-59.55
1310.578,-59.31
1310.593,-59.47
1310.608,-59.2
1310.623,-58.93
1310.638,-59.13
1310.653,-59.24
1310.668,-59.24
1310.683,-59.48
1310.698,-59.38
1310.713,-59.22
1310.728,-59.61
1310.743,-59.84
1310.758,-59.48
1310.773,-59.74
1310.788,-59.58
1310.803,-59.37
1310.818,-59.77
1310.833,-59.86
1310.848,-59.73
1310.863,-59.99
1310.878,-59.94
1310.893,-59.84
1310.908,-60.37
1310.923,-60.36
1310.938,-59.85
1310.953,-60.18
1310.968,-59.74
1310.983,-59.69
1310.998,-60.04
1311.013,-60.23
1311.028,-60.55
1311.043,-60.62
1311.058,-60.35
1311.073,-60.52
1311.088,-60.76
1311.103,-60.51
1311.118,-60.26
1311.133,-60.67
1311.148,-60.04
1311.163,-60.03
1311.178,-60.32
1311.193,-59.71
1311.208,-60.18
1311.223,-60.53
1311.238,-60.14
1311.253,-59.87
1311.268,-60.38
1311.283,-60.32
1311.298,-59.95
1311.313,-60.58
1311.328,-59.93
1311.343,-59.87
1311.358,-60.45
1311.373,-59.98
1311.388,-60.28
1311.403,-60.17
1311.418,-60.22
1311.433,-60.1
1311.448,-60.23
1311.463,-60.07
1311.478,-59.74
1311.493,-59.78
1311.508,-59.56
1311.523,-59.63
1311.538,-60.26
1311.553,-59.92
1311.568,-60.19
1311.583,-60.34
1311.598,-59.94
1311.613,-59.96
1311.628,-60.04
1311.643,-60.0
1311.658,-59.76
1311.673,-59.98
1311.688,-59.63
1311.703,-59.75
1311.718,-59.88
1311.733,-59.6
1311.748,-59.87
1311.763,-59.69
1311.778,-59.36
1311.793,-59.34
1311.808,-59.41
1311.823,-59.3
1311.838,-59.23
1311.853,-59.12
1311.868,-58.85
1311.883,-59.07
1311.898,-59.45
1311.913,-59.03
1311.928,-59.09
1311.943,-59.1
1311.958,-58.97
1311.973,-59.15
1311.988,-59.27
1312.003,-59.31
1312.018,-59.25
1312.033,-58.74
1312.048,-58.43
1312.063,-58.75
1312.078,-58.88
1312.093,-58.93
1312.108,-59.06
1312.123,-58.97
1312.138,-58.69
1312.153,-58.93
1312.168,-59.03
1312.183,-58.76
1312.198,-59.25
1312.213,-58.98
1312.228,-58.66
1312.243,-59.03
1312.258,-58.71
1312.273,-58.84
1312.288,-58.87
1312.303,-58.94
1312.318,-58.59
1312.333,-58.76
1312.348,-58.77
1312.363,-58.61
1312.378,-58.93
1312.393,-58.4
1312.408,-58.35
1312.423,-58.62
1312.438,-58.28
1312.453,-58.63
1312.468,-58.67
1312.483,-58.56
1312.498,-58.47
1312.513,-58.64
1312.528,-58.57
1312.543,-58.32
1312.558,-58.6
1312.573,-58.31
1312.588,-58.17
1312.603,-58.52
1312.618,-58.62
1312.633,-58.39
1312.648,-58.48
1312.663,-58.45
1312.678,-58.18
1312.693,-58.23
1312.708,-58.13
1312.723,-58.1
1312.738,-58.42
1312.753,-58.05
1312.768,-58.0
1312.783,-58.27
1312.798,-58.3
1312.813,-58.18
1312.828,-58.27
1312.843,-58.45
1312.858,-58.49
1312.873,-58.9
1312.888,-58.81
1312.903,-58.59
1312.918,-58.68
1312.933,-58.45
1312.948,-58.54
1312.963,-58.6
1312.978,-58.57
1312.993,-58.37
1313.008,-58.47
1313.023,-58.35
1313.038,-58.23
1313.053,-58.36
1313.068,-58.36
1313.083,-58.12
1313.098,-58.13
1313.113,-57.88
1313.128,-57.92
1313.143,-58.21
1313.158,-58.02
1313.173,-57.96
1313.188,-58.28
1313.203,-58.42
1313.218,-58.08
1313.233,-58.09
1313.248,-58.29
1313.263,-58.64
1313.278,-57.93
1313.293,-57.77
1313.308,-57.85
1313.323,-58.13
1313.338,-57.9
1313.353,-57.77
1313.368,-57.9
1313.383,-57.86
1313.398,-57.62
1313.413,-57.77
1313.428,-57.95
1313.443,-58.2
1313.458,-57.59
1313.473,-57.61
1313.488,-58.31
1313.503,-58.34
1313.518,-58.1
1313.533,-58.03
1313.548,-58.41
1313.563,-58.49
1313.578,-58.19
1313.593,-58.23
1313.608,-58.42
1313.623,-58.15
1313.638,-58.02
1313.653,-58.1
1313.668,-58.66
1313.683,-58.96
1313.698,-58.66
1313.713,-58.72
1313.728,-58.84
1313.743,-58.71
1313.758,-58.41
1313.773,-58.65
1313.788,-59.02
1313.803,-58.71
1313.818,-58.6
1313.833,-58.95
1313.848,-59.1
1313.863,-59.07
1313.878,-58.59
1313.893,-58.56
1313.908,-58.67
1313.923,-58.69
1313.938,-58.42
1313.953,-58.43
1313.968,-58.8
1313.983,-58.49
1313.998,-58.42
1314.013,-58.56
1314.028,-58.72
1314.043,-59.02
1314.058,-59.02
1314.073,-58.87
1314.088,-59.26
1314.103,-59.17
1314.118,-58.9
1314.133,-59.21
1314.148,-59.26
1314.163,-58.9
1314.178,-58.85
1314.193,-59.04
1314.208,-58.99
1314.223,-59.38
1314.238,-59.59
1314.253,-59.06
1314.268,-59.13
1314.283,-59.55
1314.298,-59.5
1314.313,-59.63
1314.328,-59.81
1314.343,-59.54
1314.358,-59.68
1314.373,-60.08
1314.388,-59.77
1314.403,-60.21
1314.418,-60.27
1314.433,-59.85
1314.448,-59.96
1314.463,-60.45
1314.478,-60.3
1314.493,-59.88
1314.508,-59.94
1314.523,-59.36
1314.538,-59.46
1314.553,-59.73
1314.568,-59.27
1314.583,-59.68
1314.598,-59.84
1314.613,-59.58
1314.628,-59.58
1314.643,-59.94
1314.658,-59.68
1314.673,-59.43
1314.688,-59.21
1314.703,-59.13
1314.718,-59.02
1314.733,-59.44
1314.748,-59.33
1314.763,-59.16
1314.778,-59.22
1314.793,-58.83
1314.808,-58.84
1314.823,-59.14
1314.838,-58.8
1314.853,-58.44
1314.868,-58.38
1314.883,-58.11
1314.898,-58.19
1314.913,-58.54
1314.928,-58.26
1314.943,-58.19
1314.958,-58.51
1314.973,-58.55
1314.988,-58.39
1315.003,-58.33
1315.018,-58.34
1315.033,-58.18
1315.048,-58.12
1315.063,-57.94
1315.078,-58.03
1315.093,-58.2
1315.108,-57.95
1315.123,-57.96
1315.138,-58.17
1315.153,-58.15
1315.168,-58.0
1315.183,-58.03
1315.198,-58.28
1315.213,-58.27
1315.228,-58.11
1315.243,-57.87
1315.258,-58.11
1315.273,-58.2
1315.288,-58.07
1315.303,-58.05
1315.318,-58.29
1315.333,-58.27
1315.348,-57.97
1315.363,-57.95
1315.378,-58.12
1315.393,-58.22
1315.408,-57.76
1315.423,-57.69
1315.438,-58.3
1315.453,-58.21
1315.468,-58.03
1315.483,-57.89
1315.498,-58.11
1315.513,-58.06
1315.528,-57.95
1315.543,-58.15
1315.558,-58.23
1315.573,-58.23
1315.588,-57.73
1315.603,-57.79
1315.618,-58.14
1315.633,-57.85
1315.648,-57.63
1315.663,-57.63
1315.678,-57.78
1315.693,-57.81
1315.708,-57.66
1315.723,-57.87
1315.738,-57.99
1315.753,-57.78
1315.768,-57.6
1315.783,-57.69
1315.798,-58.13
1315.813,-57.86
1315.828,-57.63
1315.843,-57.99
1315.858,-58.16
1315.873,-58.11
1315.888,-58.05
1315.903,-58.26
1315.918,-58.26
1315.933,-58.02
1315.948,-57.99
1315.963,-58.23
1315.978,-58.3
1315.993,-58.09
1316.008,-58.2
1316.023,-58.65
1316.038,-58.75
1316.053,-58.28
1316.068,-58.28
1316.083,-58.79
1316.098,-58.9
1316.113,-58.51
1316.128,-58.42
1316.143,-58.51
1316.158,-58.52
1316.173,-58.28
1316.188,-58.57
1316.203,-58.66
1316.218,-58.44
1316.233,-57.97
1316.248,-58.04
1316.263,-58.61
1316.278,-58.32
1316.293,-57.99
1316.308,-57.92
1316.323,-58.27
1316.338,-58.04
1316.353,-57.94
1316.368,-58.16
1316.383,-58.24
1316.398,-58.07
1316.413,-57.94
1316.428,-58.31
1316.443,-58.3
1316.458,-57.91
1316.473,-57.68
1316.488,-58.16
1316.503,-58.22
1316.518,-57.68
1316.533,-57.61
1316.548,-57.73
1316.563,-57.82
1316.578,-57.72
1316.593,-57.74
1316.608,-57.97
1316.623,-57.98
1316.638,-57.81
1316.653,-57.8
1316.668,-58.26
1316.683,-58.45
1316.698,-57.82
1316.713,-57.82
1316.728,-58.29
1316.743,-57.86
1316.758,-57.57
1316.773,-57.94
1316.788,-58.38
1316.803,-58.17
1316.818,-58.08
1316.833,-58.1
1316.848,-58.24
1316.863,-58.33
1316.878,-57.82
1316.893,-58.08
1316.908,-58.48
1316.923,-58.15
1316.938,-57.92
1316.953,-58.42
1316.968,-58.73
1316.983,-58.15
1316.998,-58.01
1317.013,-58.41
1317.028,-58.25
1317.043,-57.96
1317.058,-58.08
1317.073,-58.54
1317.088,-58.66
1317.103,-58.13
1317.118,-57.98
1317.133,-58.51
1317.148,-58.84
1317.163,-58.28
1317.178,-58.39
1317.193,-58.75
1317.208,-58.57
1317.224,-58.3
1317.238,-58.54
1317.253,-59.13
1317.268,-58.54
1317.283,-58.16
1317.298,-58.48
1317.313,-58.85
1317.328,-58.46
1317.344,-58.17
1317.359,-58.39
1317.373,-58.98
1317.388,-58.59
1317.403,-58.17
1317.418,-58.52
1317.433,-58.86
1317.448,-58.18
1317.464,-58.24
1317.479,-58.72
1317.494,-58.64
1317.509,-58.22
1317.523,-58.39
1317.538,-59.03
1317.553,-59.02
1317.568,-58.66
1317.583,-58.79
1317.599,-59.14
1317.614,-59.4
1317.629,-58.72
1317.644,-58.62
1317.658,-59.27
1317.673,-59.06
1317.688,-58.46
1317.703,-58.84
1317.719,-59.46
1317.734,-58.75
1317.749,-58.74
1317.764,-59.31
1317.779,-59.48
1317.794,-58.84
1317.808,-58.62
1317.823,-58.55
1317.839,-59.12
1317.854,-58.99
1317.869,-58.53
1317.884,-58.96
1317.899,-59.28
1317.914,-58.6
1317.929,-58.5
1317.944,-59.05
1317.958,-59.0
1317.974,-58.31
1317.989,-58.46
1318.004,-59.09
1318.019,-58.74
1318.034,-58.48
1318.049,-58.41
1318.064,-58.72
1318.079,-58.7
1318.094,-58.11
1318.109,-58.06
1318.124,-58.63
1318.139,-58.53
1318.154,-58.01
1318.169,-58.16
1318.184,-58.68
1318.199,-58.26
1318.214,-57.96
1318.229,-58.24
1318.244,-58.41
1318.259,-58.2
1318.274,-58.09
1318.289,-58.29
1318.304,-58.58
1318.319,-58.45
1318.334,-58.3
1318.349,-58.59
1318.364,-59.04
1318.379,-58.33
1318.394,-58.2
1318.409,-58.66
1318.424,-58.9
1318.439,-58.29
1318.454,-58.54
1318.469,-58.7
1318.484,-58.94
1318.499,-58.69
1318.514,-58.74
1318.529,-58.92
1318.544,-58.8
1318.559,-58.54
1318.574,-58.7
1318.589,-58.78
1318.604,-58.82
1318.619,-58.22
1318.634,-58.29
1318.649,-59.15
1318.664,-58.5
1318.679,-58.15
1318.694,-58.6
1318.709,-58.88
1318.724,-58.24
1318.739,-58.19
1318.754,-58.39
1318.769,-58.56
1318.784,-58.24
1318.799,-58.16
1318.814,-58.24
1318.829,-58.76
1318.844,-58.35
1318.859,-58.02
1318.874,-58.41
1318.889,-58.53
1318.904,-58.01
1318.919,-58.03
1318.934,-58.59
1318.949,-58.36
1318.964,-58.06
1318.979,-58.41
1318.994,-58.67
1319.009,-58.55
1319.024,-58.44
1319.039,-58.36
1319.054,-59.01
1319.069,-59.02
1319.084,-58.57
1319.099,-58.67
1319.114,-59.34
1319.129,-58.86
1319.144,-58.47
1319.159,-58.78
1319.174,-58.95
1319.189,-58.23
1319.204,-58.2
1319.219,-58.82
1319.234,-58.65
1319.249,-58.26
1319.264,-58.14
1319.279,-58.21
1319.294,-58.9
1319.309,-58.31
1319.324,-57.99
1319.339,-58.5
1319.354,-58.78
1319.369,-58.18
1319.384,-58.29
1319.399,-58.96
1319.414,-58.59
1319.429,-58.13
1319.444,-58.46
1319.459,-58.7
1319.474,-58.57
1319.489,-58.07
1319.504,-58.19
1319.519,-58.42
1319.534,-58.31
1319.549,-58.06
1319.564,-58.14
1319.579,-58.56
1319.594,-58.37
1319.609,-57.9
1319.624,-58.3
1319.639,-58.54
1319.654,-57.96
1319.669,-58.09
1319.684,-58.74
1319.699,-58.66
1319.714,-58.28
1319.729,-58.55
1319.744,-59.1
1319.759,-59.0
1319.774,-58.45
1319.789,-58.56
1319.804,-58.94
1319.819,-58.78
1319.834,-58.4
1319.849,-58.29
1319.864,-58.86
1319.879,-58.75
1319.894,-58.23
1319.909,-58.52
1319.924,-59.01
1319.939,-58.39
1319.954,-58.17
1319.969,-58.62
1319.984,-58.73
1319.999,-58.27
1320.014,-57.95
1320.029,-58.33
1320.044,-58.47
1320.059,-57.96
1320.074,-57.83
1320.089,-58.11
1320.104,-58.44
1320.119,-57.82
1320.134,-57.73
1320.149,-58.13
1320.164,-58.18
1320.179,-57.89
1320.194,-58.09
1320.209,-58.7
1320.224,-58.15
1320.239,-57.97
1320.254,-58.33
1320.269,-58.63
1320.284,-58.66
1320.299,-58.1
1320.314,-58.51
1320.329,-58.73
1320.344,-58.4
1320.359,-58.1
1320.374,-58.59
1320.389,-58.94
1320.404,-58.35
1320.419,-58.14
1320.434,-58.54
1320.449,-58.74
1320.464,-58.19
1320.479,-58.2
1320.494,-58.63
1320.509,-58.5
1320.524,-58.07
1320.539,-58.19
1320.554,-58.39
1320.569,-58.4
1320.584,-58.22
1320.599,-58.31
1320.614,-58.6
1320.629,-58.29
1320.644,-58.18
1320.659,-58.55
1320.674,-58.45
1320.689,-57.96
1320.704,-57.98
1320.719,-58.03
1320.734,-58.28
1320.749,-57.63
1320.764,-57.68
1320.779,-58.13
1320.794,-58.05
1320.809,-57.68
1320.824,-57.89
1320.839,-58.22
1320.854,-58.27
1320.869,-57.9
1320.884,-58.0
1320.899,-58.39
1320.914,-58.09
1320.929,-57.83
1320.944,-58.19
1320.959,-58.45
1320.974,-58.06
1320.989,-57.98
1321.004,-58.41
1321.019,-58.23
1321.034,-57.87
1321.049,-58.07
1321.064,-58.29
1321.079,-58.17
1321.094,-57.88
1321.109,-57.61
1321.124,-58.0
1321.139,-58.11
1321.154,-57.83
1321.169,-57.93
1321.184,-58.16
1321.199,-58.03
1321.214,-57.69
1321.229,-58.02
1321.244,-58.28
1321.259,-58.0
1321.274,-57.76
1321.289,-57.86
1321.304,-57.83
1321.319,-57.52
1321.334,-57.59
1321.349,-57.81
1321.364,-57.77
1321.379,-57.53
1321.394,-57.63
1321.409,-57.47
1321.424,-57.57
1321.439,-57.77
1321.454,-57.68
1321.469,-58.07
1321.484,-58.09
1321.499,-57.82
1321.514,-57.95
1321.529,-58.32
1321.544,-58.18
1321.559,-57.97
1321.574,-58.35
1321.589,-58.14
1321.604,-57.9
1321.619,-58.0
1321.634,-58.28
1321.649,-58.03
1321.664,-57.78
1321.679,-58.12
1321.694,-58.25
1321.709,-57.87
1321.724,-57.97
1321.739,-57.91
1321.754,-58.41
1321.769,-58.31
1321.784,-58.04
1321.799,-58.11
1321.814,-58.43
1321.829,-58.28
1321.844,-58.07
1321.859,-58.54
1321.874,-58.56
1321.889,-58.27
1321.904,-58.27
1321.919,-58.68
1321.934,-58.43
1321.949,-58.2
1321.964,-58.4
1321.979,-58.45
1321.994,-58.1
1322.009,-57.9
1322.024,-58.45
1322.039,-58.86
1322.054,-58.45
1322.069,-58.3
1322.084,-58.69
1322.099,-59.13
1322.114,-58.89
1322.129,-58.58
1322.144,-58.98
1322.159,-59.24
1322.174,-58.81
1322.189,-58.6
1322.204,-59.27
1322.219,-59.25
1322.234,-58.79
1322.249,-58.9
1322.264,-59.22
1322.279,-58.93
1322.294,-58.64
1322.309,-58.73
1322.324,-59.39
1322.339,-59.01
1322.354,-58.56
1322.369,-58.96
1322.384,-59.21
1322.399,-58.47
1322.414,-58.52
1322.429,-59.08
1322.444,-58.8
1322.459,-58.39
1322.474,-58.26
1322.489,-58.67
1322.504,-58.57
1322.519,-58.29
1322.534,-58.33
1322.549,-58.56
1322.564,-58.39
1322.579,-58.03
1322.594,-58.55
1322.609,-59.03
1322.624,-58.8
1322.639,-58.3
1322.654,-58.69
1322.669,-59.28
1322.684,-58.64
1322.699,-58.42
1322.714,-59.18
1322.729,-59.21
1322.744,-58.88
1322.759,-58.54
1322.774,-58.93
1322.789,-58.94
1322.804,-58.64
1322.819,-58.81
1322.834,-59.18
1322.849,-58.87
1322.864,-58.41
1322.879,-58.66
1322.894,-58.7
1322.909,-58.4
1322.924,-58.26
1322.939,-58.7
1322.954,-58.64
1322.969,-58.23
1322.984,-58.59
1322.999,-59.2
1323.014,-59.3
1323.029,-58.66
1323.044,-58.51
1323.059,-58.96
1323.074,-59.0
1323.089,-58.7
1323.104,-58.53
1323.119,-58.95
1323.134,-58.79
1323.149,-58.45
1323.164,-58.66
1323.179,-58.75
1323.194,-58.53
1323.209,-58.33
1323.224,-58.58
1323.239,-58.58
1323.254,-58.13
1323.269,-58.18
1323.284,-58.41
1323.299,-58.19
1323.314,-58.64
1323.329,-58.35
1323.344,-58.16
1323.359,-58.35
1323.374,-58.2
1323.389,-58.47
1323.404,-58.71
1323.419,-58.49
1323.434,-58.22
1323.449,-58.48
1323.464,-58.72
1323.479,-58.43
1323.494,-58.35
1323.509,-58.59
1323.524,-58.56
1323.539,-58.27
1323.554,-58.47
1323.569,-58.56
1323.584,-58.41
1323.599,-58.34
1323.614,-58.22
1323.629,-57.93
1323.644,-58.02
1323.659,-58.4
1323.674,-57.96
1323.689,-57.83
1323.704,-58.14
1323.719,-58.09
1323.734,-57.9
1323.749,-58.14
1323.764,-57.95
1323.779,-57.9
1323.794,-58.14
1323.809,-58.0
1323.824,-57.74
1323.839,-57.77
1323.854,-57.96
1323.869,-57.84
1323.884,-57.79
1323.899,-58.1
1323.914,-58.06
1323.929,-57.97
1323.944,-57.98
1323.959,-58.19
1323.974,-58.08
1323.989,-58.05
1324.004,-58.01
1324.019,-57.84
1324.034,-57.85
1324.049,-58.07
1324.064,-57.8
1324.079,-57.54
1324.094,-57.54
1324.109,-57.79
1324.124,-57.57
1324.139,-57.9
1324.154,-57.77
1324.169,-57.52
1324.184,-57.81
1324.199,-57.95
1324.214,-57.75
1324.229,-57.54
1324.244,-57.82
1324.259,-57.89
1324.274,-57.73
1324.289,-57.92
1324.304,-58.23
1324.319,-57.94
1324.334,-57.82
1324.349,-58.18
1324.364,-58.18
1324.379,-58.11
1324.394,-58.0
1324.409,-57.82
1324.424,-57.82
1324.439,-57.91
1324.454,-58.02
1324.469,-57.78
1324.484,-57.87
1324.499,-57.96
1324.514,-57.82
1324.529,-58.27
1324.544,-58.17
1324.559,-57.88
1324.574,-58.07
1324.589,-58.32
1324.604,-58.04
1324.619,-57.73
1324.634,-58.16
1324.649,-58.35
1324.664,-57.9
1324.679,-58.09
1324.694,-58.49
1324.709,-58.23
1324.724,-57.83
1324.739,-58.28
1324.754,-58.09
1324.769,-58.14
1324.784,-58.16
1324.799,-58.05
1324.814,-57.97
1324.829,-58.15
1324.844,-58.19
1324.859,-58.18
1324.874,-58.16
1324.889,-58.08
1324.904,-57.7
1324.919,-58.23
1324.934,-58.28
1324.949,-57.87
1324.964,-57.9
1324.979,-58.37
1324.994,-58.08
1325.009,-57.82
1325.024,-58.0
1325.039,-58.2
1325.054,-57.86
1325.069,-57.85
1325.084,-58.21
1325.099,-58.23
1325.114,-57.92
1325.129,-58.23
1325.144,-57.93
1325.159,-57.93
1325.174,-58.1
1325.189,-57.99
1325.204,-57.9
1325.219,-58.06
1325.234,-58.33
1325.25,-58.15
1325.264,-57.98
1325.279,-57.96
1325.294,-57.7
1325.309,-57.99
1325.324,-57.99
1325.339,-57.8
1325.354,-57.59
1325.37,-57.92
1325.385,-58.0
1325.4,-57.66
1325.414,-57.95
1325.429,-58.08
1325.444,-58.13
1325.459,-57.84
1325.474,-58.29
1325.49,-58.32
1325.505,-57.92
1325.52,-58.05
1325.535,-57.88
1325.549,-57.87
1325.564,-57.93
1325.579,-58.01
1325.594,-57.9
1325.609,-57.92
1325.625,-58.16
1325.64,-58.03
1325.655,-57.77
1325.67,-57.89
1325.685,-57.99
1325.699,-57.67
1325.714,-57.68
1325.729,-57.74
1325.745,-57.51
1325.76,-57.82
1325.775,-57.89
1325.79,-57.68
1325.805,-57.67
1325.82,-58.22
1325.834,-58.06
1325.849,-57.89
1325.865,-57.99
1325.88,-58.05
1325.895,-58.03
1325.91,-58.3
1325.925,-58.23
1325.94,-57.98
1325.955,-58.11
1325.97,-58.24
1325.984,-58.05
1326.0,-58.05
1326.015,-58.23
1326.03,-58.35
1326.045,-58.15
1326.06,-58.22
1326.075,-58.52
1326.09,-58.33
1326.105,-58.2
1326.12,-58.36
1326.135,-58.42
1326.15,-58.36
1326.165,-58.37
1326.18,-58.62
1326.195,-58.74
1326.21,-58.51
1326.225,-58.44
1326.24,-58.64
1326.255,-58.54
1326.27,-58.41
1326.285,-58.59
1326.3,-59.09
1326.315,-58.43
1326.33,-58.13
1326.345,-58.25
1326.36,-58.75
1326.375,-58.37
1326.39,-58.24
1326.405,-58.55
1326.42,-58.45
1326.435,-58.29
1326.45,-58.41
1326.465,-58.64
1326.48,-58.41
1326.495,-58.15
1326.51,-58.37
1326.525,-58.56
1326.54,-58.21
1326.555,-58.16
1326.57,-58.36
1326.585,-58.26
1326.6,-58.05
1326.615,-58.18
1326.63,-58.4
1326.645,-58.27
1326.66,-58.06
1326.675,-58.33
1326.69,-58.38
1326.705,-58.07
1326.72,-58.02
1326.735,-58.42
1326.75,-58.9
1326.765,-58.14
1326.78,-58.1
1326.795,-58.75
1326.81,-58.45
1326.825,-57.87
1326.84,-58.36
1326.855,-58.55
1326.87,-58.05
1326.885,-58.02
1326.9,-58.48
1326.915,-58.54
1326.93,-57.94
1326.945,-58.11
1326.96,-58.33
1326.975,-58.44
1326.99,-58.07
1327.005,-58.12
1327.02,-58.44
1327.035,-58.18
1327.05,-58.02
1327.065,-58.3
1327.08,-58.44
1327.095,-58.06
1327.11,-58.11
1327.125,-58.42
1327.14,-58.34
1327.155,-57.99
1327.17,-58.11
1327.185,-58.39
1327.2,-57.84
1327.215,-57.76
1327.23,-58.18
1327.245,-58.17
1327.26,-57.72
1327.275,-57.95
1327.29,-58.3
1327.305,-58.08
1327.32,-57.88
1327.335,-58.15
1327.35,-58.91
1327.365,-58.42
1327.38,-58.1
1327.395,-58.46
1327.41,-58.81
1327.425,-58.36
1327.44,-58.43
1327.455,-58.83
1327.47,-58.57
1327.485,-58.06
1327.5,-58.6
1327.515,-58.89
1327.53,-58.4
1327.545,-58.35
1327.56,-58.94
1327.575,-59.18
1327.59,-58.8
1327.605,-58.6
1327.62,-58.98
1327.635,-59.2
1327.65,-58.71
1327.665,-58.94
1327.68,-59.5
1327.695,-59.11
1327.71,-58.93
1327.725,-59.3
1327.74,-59.61
1327.755,-58.96
1327.77,-59.07
1327.785,-59.65
1327.8,-59.31
1327.815,-59.11
1327.83,-59.35
1327.845,-59.46
1327.86,-59.14
1327.875,-59.2
1327.89,-59.59
1327.905,-59.47
1327.92,-58.87
1327.935,-59.15
1327.95,-59.58
1327.965,-59.49
1327.98,-58.9
1327.995,-59.29
1328.01,-59.63
1328.025,-59.0
1328.04,-58.88
1328.055,-59.45
1328.07,-59.14
1328.085,-58.57
1328.1,-59.04
1328.115,-59.24
1328.13,-58.92
1328.145,-58.55
1328.16,-59.05
1328.175,-59.16
1328.19,-58.8
1328.205,-58.64
1328.22,-59.17
1328.235,-59.26
1328.25,-58.57
1328.265,-58.8
1328.28,-59.36
1328.295,-59.07
1328.31,-58.68
1328.325,-59.07
1328.34,-59.6
1328.355,-58.84
1328.37,-58.69
1328.385,-59.07
1328.4,-59.13
1328.415,-58.55
1328.43,-58.63
1328.445,-59.12
1328.46,-58.74
1328.475,-58.46
1328.49,-58.81
1328.505,-59.0
1328.52,-58.5
1328.535,-58.51
1328.55,-58.97
1328.565,-58.91
1328.58,-58.36
1328.595,-58.35
1328.61,-59.16
1328.625,-58.86
1328.64,-58.37
1328.655,-58.64
1328.67,-59.17
1328.685,-58.5
1328.7,-58.25
1328.715,-58.76
1328.73,-58.93
1328.745,-58.38
1328.76,-58.42
1328.775,-58.94
1328.79,-58.52
1328.805,-58.07
1328.82,-58.15
1328.835,-58.53
1328.85,-58.42
1328.865,-58.15
1328.88,-58.18
1328.895,-58.52
1328.91,-58.24
1328.925,-58.36
1328.94,-58.58
1328.955,-58.49
1328.97,-58.33
1328.985,-58.4
1329.0,-58.51
1329.015,-58.26
1329.03,-58.34
1329.045,-58.23
1329.06,-58.14
1329.075,-58.27
1329.09,-58.4
1329.105,-58.16
1329.12,-58.27
1329.135,-58.27
1329.15,-58.44
1329.165,-58.37
1329.18,-58.4
1329.195,-58.19
1329.21,-58.57
1329.225,-58.75
1329.24,-58.26
1329.255,-58.27
1329.27,-58.69
1329.285,-58.24
1329.3,-57.94
1329.315,-58.04
1329.33,-58.36
1329.345,-57.85
1329.36,-57.8
1329.375,-58.21
1329.39,-58.35
1329.405,-58.37
1329.42,-58.29
1329.435,-58.47
1329.45,-58.49
1329.465,-58.25
1329.48,-58.43
1329.495,-58.66
1329.51,-58.5
1329.525,-58.48
1329.54,-58.59
1329.555,-58.72
1329.57,-58.38
1329.585,-58.28
1329.6,-58.48
1329.615,-58.3
1329.63,-58.29
1329.645,-58.22
1329.66,-58.24
1329.675,-58.32
1329.69,-58.25
1329.705,-58.4
1329.72,-58.5
1329.735,-58.28
1329.75,-58.23
1329.765,-58.49
1329.78,-58.43
1329.795,-58.32
1329.81,-58.43
1329.825,-58.91
1329.84,-58.81
1329.855,-58.25
1329.87,-58.48
1329.885,-59.11
1329.9,-58.5
1329.915,-58.16
1329.93,-58.56
1329.945,-58.67
1329.96,-58.08
1329.975,-58.02
1329.99,-58.64
1330.005,-58.3
1330.02,-58.05
1330.035,-58.37
1330.05,-58.97
1330.065,-58.46
1330.08,-58.33
1330.095,-58.77
1330.11,-58.78
1330.125,-58.35
1330.14,-58.56
1330.155,-58.99
1330.17,-58.55
1330.185,-58.34
1330.2,-58.9
1330.215,-58.85
1330.23,-58.2
1330.245,-58.42
1330.26,-59.1
1330.275,-58.61
1330.29,-58.35
1330.305,-58.68
1330.32,-59.2
1330.335,-58.53
1330.35,-58.61
1330.365,-59.23
1330.38,-59.08
1330.395,-58.72
1330.41,-58.39
1330.425,-58.91
1330.44,-58.88
1330.455,-58.37
1330.47,-58.7
1330.485,-58.85
1330.5,-58.55
1330.515,-58.32
1330.53,-58.69
1330.545,-58.69
1330.56,-58.29
1330.575,-58.37
1330.59,-58.82
1330.605,-58.6
1330.62,-58.26
1330.635,-58.1
1330.65,-58.6
1330.665,-58.69
1330.68,-57.96
1330.695,-58.27
1330.71,-58.76
1330.725,-58.28
1330.74,-57.96
1330.755,-58.54
1330.77,-58.68
1330.785,-58.12
1330.8,-58.1
1330.815,-58.64
1330.83,-58.22
1330.845,-57.84
1330.86,-58.11
1330.875,-58.48
1330.89,-57.87
1330.905,-57.82
1330.92,-58.32
1330.935,-58.21
1330.95,-57.79
1330.965,-58.1
1330.98,-58.71
1330.995,-58.06
1331.01,-57.99
1331.025,-58.74
1331.04,-58.59
1331.055,-58.07
1331.07,-58.21
1331.085,-58.74
1331.1,-58.35
1331.115,-58.14
1331.13,-58.47
1331.145,-58.55
1331.16,-57.91
1331.175,-58.09
1331.19,-58.54
1331.205,-58.01
1331.22,-57.84
1331.235,-58.25
1331.25,-58.33
1331.265,-58.25
1331.28,-58.0
1331.295,-58.23
1331.31,-58.48
1331.325,-58.2
1331.34,-58.22
1331.355,-58.59
1331.37,-58.53
1331.385,-58.19
1331.4,-58.27
1331.415,-58.62
1331.43,-58.34
1331.445,-58.09
1331.46,-58.3
1331.475,-58.33
1331.49,-58.0
1331.505,-58.05
1331.52,-58.45
1331.535,-58.09
1331.55,-57.91
1331.565,-58.25
1331.58,-58.54
1331.595,-57.99
1331.61,-58.16
1331.625,-58.36
1331.64,-58.87
1331.655,-58.47
1331.67,-58.33
1331.685,-58.88
1331.7,-58.66
1331.715,-58.15
1331.73,-58.26
1331.745,-58.85
1331.76,-58.37
1331.775,-57.92
1331.79,-58.3
1331.805,-58.65
1331.82,-58.02
1331.835,-58.1
1331.85,-58.75
1331.865,-58.69
1331.88,-58.23
1331.895,-58.6
1331.91,-58.94
1331.925,-58.63
1331.94,-58.55
1331.955,-59.1
1331.97,-58.93
1331.985,-58.41
1332.0,-58.64
1332.015,-59.14
1332.03,-58.23
1332.045,-58.03
1332.06,-58.52
1332.075,-58.51
1332.09,-57.92
1332.105,-58.13
1332.12,-58.57
1332.135,-58.16
1332.15,-57.91
1332.165,-58.57
1332.18,-58.63
1332.195,-58.13
1332.21,-58.38
1332.225,-58.74
1332.24,-58.38
1332.255,-58.31
1332.27,-58.28
1332.285,-58.53
1332.3,-58.42
1332.315,-58.35
1332.33,-58.51
1332.345,-58.43
1332.36,-58.08
1332.375,-57.96
1332.39,-58.37
1332.405,-58.75
1332.42,-58.2
1332.435,-58.0
1332.45,-58.64
1332.465,-58.64
1332.48,-58.1
1332.495,-58.38
1332.51,-58.97
1332.525,-58.51
1332.54,-58.35
1332.555,-59.0
1332.57,-59.09
1332.585,-58.38
1332.6,-58.58
1332.615,-59.12
1332.63,-58.75
1332.645,-58.21
1332.66,-58.52
1332.675,-58.75
1332.69,-58.15
1332.705,-58.13
1332.72,-58.72
1332.735,-58.65
1332.75,-58.08
1332.765,-58.41
1332.78,-58.95
1332.795,-58.53
1332.81,-58.06
1332.825,-58.64
1332.84,-58.74
1332.855,-58.14
1332.87,-58.35
1332.885,-58.88
1332.9,-58.53
1332.915,-58.19
1332.93,-58.7
1332.945,-58.64
1332.96,-58.05
1332.975,-58.18
1332.99,-58.63
1333.005,-58.47
1333.02,-57.96
1333.035,-58.4
1333.05,-58.86
1333.065,-58.36
1333.08,-58.19
1333.095,-58.89
1333.11,-58.69
1333.125,-58.14
1333.141,-58.54
1333.155,-59.13
1333.17,-58.62
1333.185,-58.31
1333.2,-58.83
1333.215,-58.78
1333.23,-58.36
1333.245,-58.5
1333.26,-58.97
1333.276,-58.53
1333.29,-58.13
1333.305,-58.51
1333.32,-58.66
1333.335,-58.0
1333.35,-58.15
1333.365,-58.73
1333.38,-58.56
1333.396,-58.09
1333.411,-57.81
1333.426,-58.3
1333.44,-58.36
1333.455,-57.94
1333.47,-58.03
1333.485,-58.39
1333.5,-58.11
1333.516,-57.79
1333.531,-58.15
1333.546,-58.22
1333.561,-57.7
1333.575,-57.58
1333.59,-57.88
1333.605,-57.85
1333.62,-57.31
1333.635,-57.62
1333.651,-57.93
1333.666,-57.66
1333.681,-57.48
1333.696,-57.94
1333.711,-58.02
1333.725,-57.58
1333.74,-57.74
1333.755,-58.16
1333.771,-57.8
1333.786,-57.5
1333.801,-57.96
1333.816,-58.15
1333.831,-57.72
1333.846,-57.77
1333.86,-58.26
1333.875,-57.97
1333.891,-57.53
1333.906,-57.88
1333.921,-58.17
1333.936,-57.65
1333.951,-57.51
1333.966,-58.08
1333.981,-57.98
1333.996,-57.49
1334.01,-57.65
1334.026,-58.07
1334.041,-57.72
1334.056,-57.59
1334.071,-58.0
1334.086,-58.21
1334.101,-57.7
1334.116,-57.77
1334.131,-58.22
1334.146,-57.99
1334.161,-57.6
1334.176,-57.89
1334.191,-57.98
1334.206,-57.56
1334.221,-57.55
1334.236,-58.06
1334.251,-58.01
1334.266,-57.64
1334.281,-57.8
1334.296,-58.27
1334.311,-58.0
1334.326,-57.7
1334.341,-58.32
1334.356,-58.28
1334.371,-57.77
1334.386,-57.9
1334.401,-58.44
1334.416,-58.44
1334.431,-58.11
1334.446,-58.46
1334.461,-58.57
1334.476,-58.29
1334.491,-58.2
1334.506,-58.75
1334.521,-58.79
1334.536,-58.26
1334.551,-58.51
1334.566,-58.95
1334.581,-58.7
1334.596,-58.34
1334.611,-58.63
1334.626,-59.14
1334.641,-58.64
1334.656,-58.59
1334.671,-59.11
1334.686,-59.03
1334.701,-58.46
1334.716,-58.88
1334.731,-59.16
1334.746,-58.77
1334.761,-58.41
1334.776,-59.04
1334.791,-59.04
1334.806,-58.42
1334.821,-58.6
1334.836,-59.03
1334.851,-58.88
1334.866,-58.3
1334.881,-58.91
1334.896,-59.12
1334.911,-58.63
1334.926,-58.45
1334.941,-59.0
1334.956,-58.93
1334.971,-58.46
1334.986,-58.87
1335.001,-59.38
1335.016,-58.97
1335.031,-58.83
1335.046,-59.55
1335.061,-59.42
1335.076,-58.74
1335.091,-58.76
1335.106,-59.18
1335.121,-58.89
1335.136,-58.58
1335.151,-59.04
1335.166,-59.26
1335.181,-58.74
1335.196,-58.96
1335.211,-59.34
1335.226,-59.2
1335.241,-58.8
1335.256,-59.15
1335.271,-59.26
1335.286,-58.91
1335.301,-58.7
1335.316,-59.05
1335.331,-59.07
1335.346,-58.61
1335.361,-58.89
1335.376,-59.31
1335.391,-59.07
1335.406,-58.65
1335.421,-58.56
1335.436,-58.48
1335.451,-58.46
1335.466,-58.36
1335.481,-58.26
1335.496,-58.38
1335.511,-58.33
1335.526,-58.14
1335.541,-58.14
1335.556,-58.1
1335.571,-57.96
1335.586,-57.98
1335.601,-58.27
1335.616,-58.56
1335.631,-58.2
1335.646,-58.23
1335.661,-58.29
1335.676,-58.25
1335.691,-58.02
1335.706,-58.25
1335.721,-58.33
1335.736,-58.13
1335.751,-58.03
1335.766,-58.3
1335.781,-58.27
1335.796,-58.03
1335.811,-58.03
1335.826,-58.35
1335.841,-58.08
1335.856,-57.92
1335.871,-58.16
1335.886,-58.18
1335.901,-57.96
1335.916,-57.88
1335.931,-58.27
1335.946,-58.05
1335.961,-57.95
1335.976,-58.08
1335.991,-58.25
1336.006,-57.9
1336.021,-57.89
1336.036,-57.93
1336.051,-57.9
1336.066,-57.65
1336.081,-57.68
1336.096,-57.94
1336.111,-57.83
1336.126,-57.75
1336.141,-57.99
1336.156,-58.01
1336.171,-57.87
1336.186,-57.95
1336.201,-58.04
1336.216,-58.0
1336.231,-57.97
1336.246,-57.95
1336.261,-58.05
1336.276,-57.89
1336.291,-58.0
1336.306,-58.07
1336.321,-58.07
1336.336,-57.98
1336.351,-57.96
1336.366,-57.91
1336.381,-57.79
1336.396,-57.85
1336.411,-57.95
1336.426,-58.17
1336.441,-58.27
1336.456,-57.96
1336.471,-58.19
1336.486,-58.35
1336.501,-58.25
1336.516,-58.01
1336.531,-58.16
1336.546,-58.29
1336.561,-58.22
1336.576,-58.38
1336.591,-58.45
1336.606,-58.31
1336.621,-57.9
1336.636,-58.15
1336.651,-58.09
1336.666,-58.0
1336.681,-57.88
1336.696,-58.22
1336.711,-58.1
1336.726,-57.74
1336.741,-58.06
1336.756,-58.11
1336.771,-58.01
1336.786,-57.72
1336.801,-58.15
1336.816,-58.37
1336.831,-57.99
1336.846,-58.16
1336.861,-58.43
1336.876,-58.29
1336.891,-58.02
1336.906,-58.34
1336.921,-58.32
1336.936,-58.1
1336.951,-58.14
1336.966,-58.3
1336.981,-58.17
1336.996,-57.85
1337.011,-58.2
1337.026,-58.15
1337.041,-58.15
1337.056,-58.04
1337.071,-58.22
1337.086,-58.38
1337.101,-58.04
1337.116,-58.18
1337.131,-58.29
1337.146,-58.12
1337.161,-58.05
1337.176,-58.16
1337.191,-58.11
1337.206,-57.8
1337.221,-57.81
1337.236,-57.92
1337.251,-57.97
1337.266,-57.67
1337.281,-57.95
1337.296,-57.93
1337.311,-57.8
1337.326,-57.77
1337.341,-57.9
1337.356,-57.87
1337.371,-57.61
1337.386,-57.79
1337.401,-57.92
1337.416,-57.78
1337.431,-57.76
1337.446,-58.12
1337.461,-58.14
1337.476,-57.79
1337.491,-58.01
1337.506,-58.18
1337.521,-57.9
1337.536,-57.84
1337.551,-58.2
1337.566,-58.12
1337.581,-57.68
1337.596,-57.83
1337.611,-58.2
1337.626,-58.04
1337.641,-57.7
1337.656,-58.18
1337.671,-58.36
1337.686,-57.99
1337.701,-57.9
1337.716,-58.41
1337.731,-58.43
1337.746,-57.96
1337.761,-58.39
1337.776,-58.53
1337.791,-58.35
1337.806,-57.99
1337.821,-58.3
1337.836,-58.16
1337.851,-57.81
1337.866,-57.9
1337.881,-58.1
1337.896,-58.03
1337.911,-57.69
1337.926,-58.15
1337.941,-58.28
1337.956,-57.91
1337.971,-58.0
1337.986,-58.45
1338.001,-58.34
1338.016,-57.82
1338.031,-58.18
1338.046,-58.34
1338.061,-58.01
1338.076,-57.89
1338.091,-58.27
1338.106,-58.48
1338.121,-57.89
1338.136,-58.11
1338.151,-58.19
1338.166,-58.17
1338.181,-58.23
1338.196,-58.07
1338.211,-58.22
1338.226,-58.26
1338.241,-58.36
1338.256,-58.26
1338.271,-58.39
1338.286,-58.52
1338.301,-58.5
1338.316,-58.43
1338.331,-58.37
1338.346,-58.54
1338.361,-58.56
1338.376,-58.75
1338.391,-58.91
1338.406,-58.72
1338.421,-58.63
1338.436,-58.58
1338.451,-58.48
1338.466,-58.34
1338.481,-58.28
1338.496,-58.31
1338.511,-58.33
1338.526,-58.39
1338.541,-58.34
1338.556,-58.41
1338.571,-58.38
1338.586,-58.41
1338.601,-58.44
1338.616,-58.53
1338.631,-58.6
1338.646,-58.75
1338.661,-58.77
1338.676,-58.59
1338.691,-58.68
1338.706,-58.63
1338.721,-58.41
1338.736,-58.37
1338.751,-58.37
1338.766,-58.38
1338.781,-58.44
1338.796,-58.36
1338.811,-58.47
1338.826,-58.57
1338.841,-58.57
1338.856,-58.57
1338.871,-58.52
1338.886,-58.81
1338.901,-58.72
1338.916,-58.72
1338.931,-58.81
1338.946,-58.64
1338.961,-58.71
1338.976,-58.7
1338.991,-58.74
1339.006,-58.8
1339.021,-58.8
1339.036,-58.82
1339.051,-58.74
1339.066,-58.67
1339.081,-58.82
1339.096,-58.82
1339.111,-58.55
1339.126,-58.73
1339.141,-58.58
1339.156,-58.49
1339.171,-58.47
1339.186,-58.33
1339.201,-58.31
1339.216,-58.39
1339.231,-58.61
1339.246,-58.52
1339.261,-58.45
1339.276,-58.65
1339.291,-58.44
1339.306,-58.11
1339.321,-58.15
1339.336,-58.17
1339.351,-58.12
1339.366,-57.93
1339.381,-58.02
1339.396,-57.97
1339.411,-57.97
1339.426,-57.92
1339.441,-58.04
1339.456,-58.12
1339.471,-57.99
1339.486,-58.04
1339.501,-58.11
1339.516,-58.06
1339.531,-57.99
1339.546,-58.06
1339.561,-58.08
1339.576,-57.95
1339.591,-58.05
1339.606,-58.34
1339.621,-58.06
1339.636,-57.87
1339.651,-57.88
1339.666,-57.73
1339.681,-57.62
1339.696,-57.68
1339.711,-57.88
1339.726,-58.05
1339.741,-57.91
1339.756,-58.09
1339.771,-58.12
1339.786,-57.97
1339.801,-57.91
1339.816,-58.12
1339.831,-58.09
1339.846,-57.96
1339.861,-57.96
1339.876,-58.26
1339.891,-57.75
1339.906,-57.73
1339.921,-58.32
1339.936,-57.82
1339.951,-57.58
1339.966,-57.89
1339.981,-58.12
1339.996,-57.51
1340.011,-57.41
1340.026,-57.9
1340.041,-57.7
1340.056,-57.49
1340.071,-57.8
1340.086,-58.06
1340.101,-57.58
1340.116,-57.52
1340.131,-58.01
1340.146,-57.9
1340.161,-57.94
1340.176,-58.29
1340.191,-58.36
1340.206,-58.15
1340.221,-58.35
1340.236,-58.28
1340.251,-57.95
1340.266,-58.03
1340.281,-58.22
1340.296,-58.09
1340.311,-57.88
1340.326,-58.04
1340.341,-58.38
1340.356,-58.1
1340.371,-58.06
1340.386,-58.26
1340.401,-58.42
1340.416,-58.06
1340.431,-58.14
1340.446,-58.51
1340.461,-58.22
1340.476,-58.06
1340.491,-58.4
1340.506,-58.66
1340.521,-58.32
1340.536,-58.23
1340.551,-58.64
1340.566,-58.04
1340.581,-57.88
1340.596,-58.42
1340.611,-58.13
1340.626,-57.72
1340.641,-57.99
1340.656,-58.48
1340.671,-58.12
1340.686,-57.97
1340.701,-58.47
1340.716,-58.44
1340.731,-57.84
1340.746,-57.92
1340.761,-58.38
1340.776,-58.01
1340.791,-57.86
1340.806,-58.36
1340.821,-58.36
1340.836,-57.76
1340.851,-57.95
1340.866,-58.41
1340.881,-57.93
1340.896,-58.11
1340.911,-58.67
1340.926,-58.12
1340.941,-58.0
1340.956,-58.44
1340.971,-58.51
1340.986,-58.27
1341.001,-58.7
1341.016,-58.69
1341.031,-58.33
1341.046,-58.54
1341.061,-58.99
1341.076,-58.76
1341.091,-58.36
1341.106,-58.78
1341.121,-59.12
1341.136,-58.54
1341.151,-58.41
1341.167,-58.79
1341.181,-58.43
1341.196,-58.0
1341.211,-58.43
1341.226,-58.5
1341.241,-58.2
1341.256,-58.13
1341.271,-58.68
1341.286,-58.39
1341.302,-57.97
1341.316,-58.38
1341.331,-58.76
1341.346,-58.31
1341.361,-58.18
1341.376,-58.72
1341.391,-58.81
1341.406,-58.61
1341.422,-58.86
1341.437,-58.69
1341.452,-58.5
1341.466,-58.61
1341.481,-58.64
1341.496,-58.67
1341.511,-58.4
1341.526,-58.53
1341.542,-58.51
1341.557,-58.32
1341.572,-58.82
1341.587,-59.05
1341.601,-58.38
1341.616,-58.45
1341.631,-59.09
1341.646,-58.84
1341.661,-58.29
1341.677,-58.7
1341.692,-58.96
1341.707,-58.41
1341.722,-58.31
1341.737,-58.81
1341.751,-58.87
1341.766,-58.2
1341.781,-58.57
1341.797,-58.81
1341.812,-58.26
1341.827,-58.13
1341.842,-58.86
1341.857,-58.65
1341.872,-58.25
1341.887,-58.62
1341.901,-58.98
1341.917,-58.37
1341.932,-58.3
1341.947,-58.7
1341.962,-58.81
1341.977,-58.45
1341.992,-58.43
1342.007,-58.48
1342.022,-58.6
1342.036,-58.56
1342.052,-58.4
1342.067,-57.88
1342.082,-57.96
1342.097,-58.52
1342.112,-58.15
1342.127,-57.88
1342.142,-58.12
1342.157,-58.32
1342.172,-57.85
1342.187,-58.23
1342.202,-58.72
1342.217,-58.3
1342.232,-58.01
1342.247,-58.23
1342.262,-58.52
1342.277,-57.96
1342.292,-57.93
1342.307,-58.44
1342.322,-58.31
1342.337,-57.85
1342.352,-58.2
1342.367,-58.65
1342.382,-58.16
1342.397,-58.0
1342.412,-58.16
1342.427,-57.9
1342.442,-57.92
1342.457,-58.09
1342.472,-58.16
1342.487,-58.04
1342.502,-57.92
1342.517,-58.05
1342.532,-57.96
1342.547,-57.9
1342.562,-58.05
1342.577,-58.11
1342.592,-57.97
1342.607,-58.04
1342.622,-58.24
1342.637,-58.18
1342.652,-57.94
1342.667,-58.07
1342.682,-57.95
1342.697,-57.65
1342.712,-57.78
1342.727,-58.14
1342.742,-57.62
1342.757,-57.5
1342.772,-57.99
1342.787,-57.91
1342.802,-57.43
1342.817,-57.53
1342.832,-57.97
1342.847,-57.61
1342.862,-57.36
1342.877,-57.87
1342.892,-58.02
1342.907,-57.54
1342.922,-57.66
1342.937,-58.11
1342.952,-57.92
1342.967,-57.54
1342.982,-57.78
1342.997,-58.05
1343.012,-57.48
1343.027,-57.39
1343.042,-57.86
1343.057,-57.76
1343.072,-57.77
1343.087,-57.83
1343.102,-57.38
1343.117,-57.27
1343.132,-57.66
1343.147,-57.7
1343.162,-57.37
1343.177,-57.61
1343.192,-57.86
1343.207,-57.46
1343.222,-57.4
1343.237,-57.75
1343.252,-57.86
1343.267,-57.43
1343.282,-57.42
1343.297,-57.92
1343.312,-57.61
1343.327,-57.34
1343.342,-57.63
1343.357,-57.89
1343.372,-57.43
1343.387,-57.41
1343.402,-57.88
1343.417,-57.69
1343.432,-57.38
1343.447,-57.59
1343.462,-58.19
1343.477,-57.61
1343.492,-57.53
1343.507,-58.15
1343.522,-57.86
1343.537,-57.69
1343.552,-58.15
1343.567,-58.13
1343.582,-57.68
1343.597,-57.8
1343.612,-58.29
1343.627,-58.06
1343.642,-57.65
1343.657,-58.06
1343.672,-58.22
1343.687,-57.95
1343.702,-58.27
1343.717,-58.74
1343.732,-58.23
1343.747,-58.31
1343.762,-58.76
1343.777,-58.72
1343.792,-58.34
1343.807,-58.55
1343.822,-59.07
1343.837,-58.58
1343.852,-58.32
1343.867,-58.86
1343.882,-58.67
1343.897,-58.14
1343.912,-58.16
1343.927,-58.61
1343.942,-57.96
1343.957,-58.19
1343.972,-58.54
1343.987,-58.29
1344.002,-57.93
1344.017,-58.45
1344.032,-58.67
1344.047,-58.14
1344.062,-58.09
1344.077,-58.56
1344.092,-58.41
1344.107,-58.52
1344.122,-59.03
1344.137,-59.04
1344.152,-58.6
1344.167,-58.75
1344.182,-59.3
1344.197,-58.68
1344.212,-58.52
1344.227,-58.85
1344.242,-59.04
1344.257,-58.5
1344.272,-58.74
1344.287,-59.63
1344.302,-58.98
1344.317,-58.64
1344.332,-59.11
1344.347,-59.42
1344.362,-58.81
1344.377,-59.39
1344.392,-59.69
1344.407,-59.11
1344.422,-59.06
1344.437,-59.79
1344.452,-59.67
1344.467,-58.73
1344.482,-59.04
1344.497,-59.34
1344.512,-58.72
1344.527,-58.94
1344.542,-59.43
1344.557,-58.84
1344.572,-58.64
1344.587,-58.94
1344.602,-59.17
1344.617,-58.52
1344.632,-58.57
1344.647,-58.99
1344.662,-58.88
1344.677,-58.57
1344.692,-58.79
1344.707,-59.27
1344.722,-58.65
1344.737,-58.5
1344.752,-58.96
1344.767,-59.05
1344.782,-58.41
1344.797,-58.97
1344.812,-59.01
1344.827,-58.42
1344.842,-58.63
1344.857,-59.25
1344.872,-58.81
1344.887,-58.59
1344.902,-58.96
1344.917,-59.09
1344.932,-58.55
1344.947,-59.06
1344.962,-59.09
1344.977,-58.61
1344.992,-58.69
1345.007,-59.32
1345.022,-59.11
1345.037,-58.59
1345.052,-58.73
1345.067,-59.29
1345.082,-58.65
1345.097,-58.63
1345.112,-58.99
1345.127,-59.0
1345.142,-58.3
1345.157,-58.41
1345.172,-58.8
1345.187,-58.38
1345.202,-58.32
1345.217,-58.8
1345.232,-58.47
1345.247,-58.08
1345.262,-58.62
1345.277,-58.79
1345.292,-58.02
1345.307,-58.11
1345.322,-58.75
1345.337,-58.58
1345.352,-58.15
1345.367,-58.53
1345.382,-58.14
1345.397,-57.78
1345.412,-57.95
1345.427,-58.45
1345.442,-57.85
1345.457,-57.75
1345.472,-58.09
1345.487,-58.15
1345.502,-57.82
1345.517,-57.91
1345.532,-58.27
1345.547,-57.78
1345.562,-57.58
1345.577,-57.98
1345.592,-58.31
1345.607,-57.92
1345.622,-58.51
1345.637,-58.54
1345.652,-58.18
1345.667,-58.15
1345.682,-58.46
1345.697,-58.36
1345.712,-57.92
1345.727,-58.17
1345.742,-58.35
1345.757,-57.89
1345.772,-57.63
1345.787,-58.3
1345.802,-57.89
1345.817,-57.77
1345.832,-58.16
1345.847,-58.25
1345.862,-57.74
1345.877,-57.83
1345.892,-57.86
1345.907,-57.53
1345.922,-57.74
1345.937,-58.04
1345.952,-57.7
1345.967,-57.4
1345.982,-57.74
1345.997,-57.75
1346.012,-57.37
1346.027,-57.31
1346.042,-57.61
1346.057,-57.59
1346.072,-57.19
1346.087,-57.55
1346.102,-57.79
1346.117,-57.36
1346.132,-57.27
1346.147,-57.66
1346.162,-57.64
1346.177,-57.49
1346.192,-57.41
1346.207,-57.46
1346.222,-57.39
1346.237,-57.79
1346.252,-57.72
1346.267,-57.3
1346.282,-57.41
1346.297,-57.58
1346.312,-57.41
1346.327,-57.26
1346.342,-57.51
1346.357,-57.56
1346.372,-57.31
1346.387,-57.5
1346.402,-57.67
1346.417,-57.62
1346.432,-57.37
1346.447,-57.62
1346.462,-57.58
1346.477,-57.61
1346.492,-57.41
1346.507,-57.43
1346.522,-57.61
1346.537,-57.58
1346.552,-57.44
1346.567,-57.62
1346.582,-57.87
1346.597,-57.58
1346.612,-57.39
1346.627,-57.1
1346.642,-57.27
1346.657,-57.37
1346.672,-57.23
1346.687,-57.17
1346.702,-57.35
1346.717,-57.32
1346.732,-57.22
1346.747,-57.46
1346.762,-57.68
1346.777,-57.6
1346.792,-57.4
1346.807,-57.61
1346.822,-57.54
1346.837,-57.54
1346.852,-57.56
1346.867,-57.6
1346.882,-57.49
1346.897,-57.56
1346.912,-57.65
1346.927,-57.57
1346.942,-57.57
1346.957,-57.76
1346.972,-57.69
1346.987,-57.49
1347.002,-57.81
1347.017,-57.88
1347.032,-57.62
1347.047,-57.62
1347.062,-57.93
1347.077,-57.93
1347.092,-57.56
1347.107,-57.59
1347.122,-57.85
1347.137,-57.69
1347.152,-57.63
1347.167,-57.96
1347.182,-57.69
1347.197,-57.5
1347.212,-57.84
1347.227,-57.82
1347.242,-57.26
1347.257,-57.35
1347.272,-57.85
1347.287,-57.45
1347.302,-57.33
1347.317,-57.67
1347.332,-57.61
1347.347,-57.3
1347.362,-57.68
1347.377,-57.72
1347.392,-57.42
1347.407,-57.63
1347.422,-57.96
1347.437,-57.69
1347.452,-57.38
1347.467,-57.75
1347.482,-57.64
1347.497,-57.46
1347.512,-57.67
1347.527,-57.92
1347.542,-57.42
1347.557,-57.42
1347.572,-57.92
1347.587,-57.61
1347.602,-57.36
1347.617,-57.63
1347.632,-58.01
1347.647,-57.6
1347.662,-57.9
1347.677,-58.15
1347.692,-57.75
1347.707,-57.57
1347.722,-58.0
1347.737,-57.9
1347.752,-57.38
1347.767,-57.53
1347.782,-57.97
1347.797,-57.72
1347.812,-57.36
1347.827,-57.83
1347.842,-57.75
1347.857,-57.33
1347.872,-57.49
1347.887,-57.47
1347.902,-57.35
1347.917,-57.72
1347.932,-57.75
1347.947,-57.4
1347.962,-57.37
1347.977,-57.9
1347.992,-57.83
1348.007,-57.46
1348.022,-57.74
1348.037,-58.08
1348.052,-57.7
1348.067,-57.61
1348.082,-58.05
1348.097,-57.94
1348.112,-57.91
1348.127,-57.96
1348.142,-58.02
1348.157,-57.9
1348.172,-57.94
1348.187,-57.92
1348.202,-58.13
1348.217,-58.32
1348.232,-58.33
1348.247,-58.36
1348.262,-58.35
1348.277,-58.27
1348.292,-58.29
1348.307,-58.31
1348.322,-58.42
1348.337,-58.3
1348.352,-58.32
1348.367,-58.19
1348.382,-58.15
1348.397,-58.18
1348.412,-58.08
1348.427,-58.03
1348.442,-57.93
1348.457,-58.01
1348.472,-57.97
1348.487,-58.1
1348.502,-58.12
1348.517,-58.15
1348.532,-58.23
1348.547,-58.37
1348.562,-58.43
1348.577,-58.39
1348.592,-58.03
1348.607,-58.09
1348.622,-58.58
1348.637,-58.11
1348.652,-58.11
1348.667,-57.98
1348.682,-57.93
1348.697,-57.89
1348.712,-57.98
1348.727,-57.97
1348.742,-58.05
1348.757,-58.04
1348.772,-57.96
1348.787,-57.86
1348.802,-57.86
1348.817,-57.92
1348.832,-57.94
1348.847,-57.94
1348.862,-58.28
1348.877,-58.44
1348.892,-58.39
1348.907,-58.43
1348.922,-58.36
1348.937,-58.46
1348.952,-58.42
1348.967,-58.23
1348.982,-58.19
1348.997,-58.11
1349.012,-58.09
1349.027,-58.04
1349.042,-57.92
1349.057,-57.95
1349.072,-57.99
1349.087,-58.02
1349.102,-58.18
1349.117,-57.84
1349.132,-57.77
1349.147,-58.1
1349.162,-58.06
1349.177,-58.04
1349.193,-57.88
1349.207,-57.93
1349.222,-57.85
1349.237,-57.87
1349.252,-57.8
1349.267,-57.85
1349.282,-58.04
1349.297,-57.98
1349.313,-57.92
1349.328,-57.77
1349.343,-58.13
1349.357,-58.02
1349.372,-57.6
1349.387,-57.8
1349.402,-58.13
1349.417,-57.88
1349.432,-57.46
1349.448,-57.98
1349.463,-58.02
1349.478,-57.96
1349.492,-58.05
1349.507,-57.92
1349.522,-58.01
1349.537,-58.04
1349.552,-57.78
1349.568,-57.8
1349.583,-57.64
1349.598,-58.05
1349.613,-57.99
1349.628,-57.54
1349.642,-57.71
1349.657,-57.92
1349.672,-57.69
1349.688,-57.47
1349.703,-57.63
1349.718,-57.7
1349.733,-57.71
1349.748,-57.59
1349.763,-57.66
1349.777,-57.78
1349.792,-57.92
1349.807,-57.88
1349.823,-57.98
1349.838,-57.88
1349.853,-58.07
1349.868,-57.81
1349.883,-57.41
1349.898,-57.77
1349.913,-57.95
1349.927,-57.94
1349.943,-57.95
1349.958,-57.84
1349.973,-57.99
1349.988,-58.02
1350.003,-58.01
1350.018,-58.0
1350.033,-58.06
1350.048,-58.16
1350.063,-58.12
1350.078,-58.26
1350.093,-58.04
1350.108,-57.82
1350.123,-57.99
1350.138,-58.28
1350.153,-58.19
1350.168,-58.1
1350.183,-58.04
1350.198,-58.0
1350.213,-57.96
1350.228,-58.13
1350.243,-57.79
1350.258,-57.55
1350.273,-57.71
1350.288,-57.71
1350.303,-57.46
1350.318,-57.59
1350.333,-57.83
1350.348,-57.75
1350.363,-57.67
1350.378,-57.86
1350.393,-57.82
1350.408,-57.4
1350.423,-57.69
1350.438,-58.25
1350.453,-57.66
1350.468,-57.66
1350.483,-57.82
1350.498,-57.56
1350.513,-57.46
1350.528,-57.64
1350.543,-57.66
1350.558,-57.45
1350.573,-57.53
1350.588,-57.69
1350.603,-57.61
1350.618,-57.5
1350.633,-57.8
1350.648,-57.68
1350.663,-57.36
1350.678,-57.81
1350.693,-58.04
1350.708,-57.81
1350.723,-58.01
1350.738,-58.13
1350.753,-58.05
1350.768,-57.85
1350.783,-58.07
1350.798,-57.96
1350.813,-57.81
1350.828,-57.82
1350.843,-57.96
1350.858,-57.71
1350.873,-57.61
1350.888,-57.93
1350.903,-57.88
1350.918,-57.71
1350.933,-57.42
1350.948,-57.32
1350.963,-57.31
1350.978,-57.55
1350.993,-57.61
1351.008,-57.36
1351.023,-57.47
1351.038,-57.63
1351.053,-57.44
1351.068,-57.34
1351.083,-57.41
1351.098,-57.51
1351.113,-57.48
1351.128,-57.39
1351.143,-57.41
1351.158,-57.41
1351.173,-57.45
1351.188,-57.12
1351.203,-57.3
1351.218,-57.67
1351.233,-57.32
1351.248,-57.56
1351.263,-57.61
1351.278,-57.73
1351.293,-57.7
1351.308,-57.84
1351.323,-57.68
1351.338,-57.64
1351.353,-57.67
1351.368,-57.62
1351.383,-57.54
1351.398,-57.46
1351.413,-57.94
1351.428,-57.67
1351.443,-57.26
1351.458,-57.67
1351.473,-57.72
1351.488,-57.45
1351.503,-57.35
1351.518,-57.85
1351.533,-57.85
1351.548,-57.73
1351.563,-57.75
1351.578,-57.77
1351.593,-57.76
1351.608,-57.77
1351.623,-57.79
1351.638,-57.57
1351.653,-57.75
1351.668,-58.05
1351.683,-57.64
1351.698,-57.34
1351.713,-57.39
1351.728,-57.42
1351.743,-57.32
1351.758,-57.23
1351.773,-57.31
1351.788,-57.23
1351.803,-57.28
1351.818,-57.15
1351.833,-57.1
1351.848,-57.27
1351.863,-57.37
1351.878,-57.56
1351.893,-57.41
1351.908,-57.24
1351.923,-57.11
1351.938,-57.28
1351.953,-57.39
1351.968,-57.36
1351.983,-57.28
1351.998,-57.17
1352.013,-57.23
1352.028,-57.24
1352.043,-57.19
1352.058,-57.18
1352.073,-57.27
1352.088,-57.58
1352.103,-57.34
1352.118,-57.12
1352.133,-57.27
1352.148,-57.53
1352.163,-57.22
1352.178,-57.17
1352.193,-57.53
1352.208,-57.66
1352.223,-57.28
1352.238,-57.34
1352.253,-57.31
1352.268,-57.39
1352.283,-57.61
1352.298,-57.58
1352.313,-57.29
1352.328,-57.49
1352.343,-57.84
1352.358,-57.58
1352.373,-57.34
1352.388,-57.67
1352.403,-58.06
1352.418,-57.56
1352.433,-57.52
1352.448,-57.89
1352.463,-57.43
1352.478,-57.47
1352.493,-57.92
1352.508,-57.8
1352.523,-57.39
1352.538,-57.57
1352.553,-57.52
1352.568,-57.3
1352.583,-57.35
1352.598,-57.79
1352.613,-57.36
1352.628,-57.25
1352.643,-57.6
1352.658,-57.65
1352.673,-57.26
1352.688,-57.78
1352.703,-57.77
1352.718,-57.76
1352.733,-57.91
1352.748,-58.14
1352.763,-57.77
1352.778,-57.89
1352.793,-58.45
1352.808,-58.23
1352.823,-58.0
1352.838,-58.41
1352.853,-58.56
1352.868,-58.0
1352.883,-57.72
1352.898,-57.93
1352.913,-57.63
1352.928,-57.68
1352.943,-58.15
1352.958,-57.81
1352.973,-57.74
1352.988,-58.07
1353.003,-58.14
1353.018,-57.79
1353.033,-57.98
1353.048,-58.23
1353.063,-58.08
1353.078,-58.0
1353.093,-57.83
1353.108,-57.94
1353.123,-57.91
1353.138,-58.45
1353.153,-58.16
1353.168,-57.81
1353.183,-58.1
1353.198,-58.27
1353.213,-57.81
1353.228,-57.66
1353.243,-58.23
1353.258,-58.06
1353.273,-57.84
1353.288,-57.85
1353.303,-57.95
1353.318,-57.71
1353.333,-57.93
1353.348,-58.05
1353.363,-57.46
1353.378,-58.0
1353.393,-58.11
1353.408,-57.58
1353.423,-57.6
1353.438,-58.28
1353.453,-57.92
1353.468,-58.03
1353.483,-58.21
1353.498,-57.91
1353.513,-57.74
1353.528,-57.86
1353.543,-58.13
1353.558,-57.92
1353.573,-57.82
1353.588,-58.4
1353.603,-57.78
1353.618,-57.74
1353.633,-58.31
1353.648,-58.13
1353.663,-57.78
1353.678,-58.17
1353.693,-58.14
1353.708,-57.89
1353.723,-57.92
1353.738,-58.36
1353.753,-58.03
1353.768,-58.32
1353.783,-58.75
1353.798,-58.25
1353.813,-57.86
1353.828,-58.26
1353.843,-58.55
1353.858,-58.0
1353.873,-58.01
1353.888,-58.62
1353.903,-58.42
1353.918,-58.38
1353.933,-58.76
1353.948,-58.22
1353.963,-58.32
1353.978,-58.84
1353.993,-58.45
1354.008,-58.16
1354.023,-58.88
1354.038,-59.1
1354.053,-58.55
1354.068,-58.31
1354.083,-58.9
1354.098,-58.86
1354.113,-58.31
1354.128,-58.57
1354.143,-58.13
1354.158,-58.01
1354.173,-58.65
1354.188,-58.52
1354.203,-58.05
1354.218,-58.26
1354.233,-58.91
1354.248,-58.47
1354.263,-58.28
1354.278,-58.95
1354.293,-58.97
1354.308,-58.38
1354.323,-59.14
1354.338,-58.79
1354.353,-58.19
1354.368,-58.9
1354.383,-58.73
1354.398,-58.26
1354.413,-58.49
1354.428,-59.14
1354.443,-58.39
1354.458,-58.27
1354.473,-58.75
1354.488,-58.74
1354.503,-58.29
1354.518,-58.88
1354.533,-58.95
1354.548,-58.6
1354.563,-58.61
1354.578,-59.21
1354.593,-58.55
1354.608,-58.61
1354.623,-59.28
1354.638,-58.74
1354.653,-58.63
1354.668,-58.71
1354.683,-59.06
1354.698,-58.45
1354.713,-59.1
1354.728,-59.16
1354.743,-58.45
1354.758,-58.62
1354.773,-58.69
1354.788,-57.98
1354.803,-58.1
1354.818,-58.64
1354.833,-58.4
1354.848,-58.01
1354.863,-58.25
1354.878,-58.3
1354.893,-57.92
1354.908,-58.31
1354.923,-58.45
1354.938,-57.97
1354.953,-58.45
1354.968,-58.69
1354.983,-58.03
1354.998,-58.01
1355.013,-58.45
1355.028,-58.06
1355.043,-57.64
1355.058,-57.91
1355.073,-57.92
1355.088,-57.59
1355.103,-57.74
1355.118,-58.04
1355.133,-57.72
1355.148,-57.92
1355.163,-58.42
1355.178,-57.87
1355.193,-57.78
1355.208,-58.37
1355.223,-58.31
1355.238,-57.72
1355.253,-58.21
1355.268,-58.13
1355.283,-57.55
1355.298,-57.66
1355.313,-57.94
1355.328,-57.33
1355.343,-57.51
1355.358,-58.01
1355.373,-57.74
1355.388,-57.47
1355.403,-57.86
1355.418,-58.05
1355.433,-57.51
1355.448,-57.89
1355.463,-58.1
1355.478,-57.66
1355.493,-57.6
1355.508,-58.04
1355.523,-57.52
1355.538,-57.55
1355.553,-57.91
1355.568,-57.78
1355.583,-57.31
1355.598,-57.44
1355.613,-57.91
1355.628,-57.4
1355.643,-57.59
1355.658,-57.68
1355.673,-57.57
1355.688,-57.47
1355.703,-58.02
1355.718,-57.43
1355.733,-57.25
1355.748,-57.77
1355.763,-57.78
1355.778,-57.42
1355.793,-57.64
1355.808,-57.87
1355.823,-57.38
1355.838,-57.64
1355.853,-57.83
1355.868,-57.49
1355.883,-57.54
1355.898,-57.92
1355.913,-57.45
1355.928,-57.21
1355.943,-57.84
1355.958,-57.93
1355.973,-57.47
1355.988,-57.59
1356.003,-57.92
1356.018,-57.51
1356.033,-57.59
1356.048,-57.95
1356.063,-57.69
1356.078,-57.66
1356.093,-57.97
1356.108,-58.0
1356.123,-57.46
1356.138,-57.8
1356.153,-58.2
1356.168,-57.52
1356.183,-57.82
1356.198,-58.12
1356.213,-57.63
1356.228,-57.52
1356.243,-58.02
1356.258,-57.61
1356.273,-57.49
1356.288,-57.89
1356.303,-57.9
1356.318,-57.59
1356.333,-57.77
1356.348,-58.19
1356.363,-57.91
1356.378,-58.01
1356.393,-58.53
1356.408,-58.2
1356.423,-57.93
1356.438,-58.35
1356.453,-58.09
1356.468,-57.84
1356.483,-58.2
1356.498,-58.41
1356.513,-57.86
1356.528,-57.94
1356.543,-58.28
1356.558,-57.74
1356.573,-57.71
1356.588,-58.16
1356.603,-58.09
1356.618,-57.68
1356.633,-58.16
1356.648,-58.06
1356.663,-57.75
1356.678,-58.1
1356.693,-58.48
1356.708,-57.85
1356.723,-57.66
1356.738,-58.06
1356.753,-57.69
1356.768,-57.55
1356.783,-57.9
1356.798,-57.75
1356.813,-57.43
1356.828,-57.9
1356.843,-57.83
1356.858,-57.52
1356.873,-57.76
1356.888,-58.13
1356.903,-57.79
1356.918,-57.56
1356.933,-58.18
1356.948,-57.7
1356.963,-57.3
1356.978,-57.68
1356.993,-57.69
1357.008,-57.46
1357.023,-57.86
1357.038,-57.95
1357.053,-57.46
1357.068,-57.32
1357.083,-57.84
1357.098,-57.75
1357.113,-57.31
1357.128,-57.87
1357.143,-57.68
1357.158,-57.29
1357.173,-57.71
1357.188,-57.69
1357.203,-57.34
1357.219,-57.47
1357.233,-57.89
1357.248,-57.61
1357.263,-57.42
1357.278,-57.78
1357.293,-57.94
1357.308,-57.56
1357.323,-57.93
1357.339,-58.01
1357.354,-57.59
1357.369,-57.73
1357.383,-57.82
1357.398,-57.25
1357.413,-57.24
1357.428,-57.72
1357.443,-57.63
1357.458,-57.24
1357.474,-57.66
1357.489,-57.42
1357.504,-57.1
1357.518,-57.5
1357.533,-57.74
1357.548,-57.32
1357.563,-57.62
1357.578,-58.06
1357.594,-57.55
1357.609,-57.53
1357.624,-57.98
1357.639,-57.8
1357.654,-57.59
1357.668,-57.93
1357.683,-57.86
1357.698,-57.37
1357.714,-57.53
1357.729,-57.91
1357.744,-57.55
1357.759,-57.76
1357.774,-58.2
1357.789,-57.68
1357.803,-58.05
1357.818,-58.34
1357.833,-58.03
1357.849,-57.8
1357.864,-58.35
1357.879,-58.25
1357.894,-57.86
1357.909,-58.01
1357.924,-58.37
1357.939,-57.81
1357.953,-58.03
1357.969,-58.14
1357.984,-57.72
1357.999,-57.88
1358.014,-58.15
1358.029,-57.9
1358.044,-57.72
1358.059,-58.2
1358.074,-58.46
1358.089,-58.01
1358.104,-58.06
1358.119,-58.27
1358.134,-57.95
1358.149,-58.5
1358.164,-58.56
1358.179,-58.27
1358.194,-58.29
1358.209,-58.62
1358.224,-58.64
1358.239,-58.24
1358.254,-58.41
1358.269,-58.51
1358.284,-58.65
1358.299,-58.52
1358.314,-58.55
1358.329,-58.18
1358.344,-58.58
1358.359,-58.68
1358.374,-58.25
1358.389,-58.2
1358.404,-58.65
1358.419,-58.78
1358.434,-58.81
1358.449,-58.49
1358.464,-58.71
1358.479,-58.66
1358.494,-59.01
1358.509,-58.91
1358.524,-58.66
1358.539,-58.92
1358.554,-59.02
1358.569,-58.82
1358.584,-58.51
1358.599,-58.38
1358.614,-58.66
1358.629,-58.7
1358.644,-58.49
1358.659,-58.3
1358.674,-58.34
1358.689,-58.47
1358.704,-58.51
1358.719,-58.26
1358.734,-58.5
1358.749,-58.24
1358.764,-58.77
1358.779,-58.41
1358.794,-58.37
1358.809,-58.18
1358.824,-58.27
1358.839,-58.24
1358.854,-58.23
1358.869,-58.01
1358.884,-58.2
1358.899,-58.07
1358.914,-58.2
1358.929,-57.96
1358.944,-57.97
1358.959,-58.25
1358.974,-58.5
1358.989,-58.31
1359.004,-58.45
1359.019,-58.56
1359.034,-58.54
1359.049,-58.52
1359.064,-58.2
1359.079,-57.9
1359.094,-58.23
1359.109,-58.31
1359.124,-58.16
1359.139,-58.1
1359.154,-57.92
1359.169,-57.91
1359.184,-57.95
1359.199,-57.77
1359.214,-57.84
1359.229,-57.57
1359.244,-57.81
1359.259,-57.76
1359.274,-57.65
1359.289,-57.58
1359.304,-57.58
1359.319,-57.52
1359.334,-57.55
1359.349,-57.3
1359.364,-57.4
1359.379,-57.59
1359.394,-57.87
1359.409,-57.42
1359.424,-57.33
1359.439,-57.17
1359.454,-57.38
1359.469,-57.39
1359.484,-57.2
1359.499,-57.21
1359.514,-57.37
1359.529,-57.37
1359.544,-57.33
1359.559,-57.18
1359.574,-57.22
1359.589,-57.26
1359.604,-57.35
1359.619,-57.33
1359.634,-57.16
1359.649,-57.48
1359.664,-57.59
1359.679,-57.34
1359.694,-57.3
1359.709,-57.28
1359.724,-57.4
1359.739,-57.24
1359.754,-57.44
1359.769,-57.04
1359.784,-57.0
1359.799,-57.31
1359.814,-57.12
1359.829,-56.81
1359.844,-57.13
1359.859,-57.12
1359.874,-57.11
1359.889,-57.13
1359.904,-57.22
1359.919,-56.96
1359.934,-57.3
1359.949,-57.46
1359.964,-57.07
1359.979,-56.85
1359.994,-57.54
1360.009,-57.32
1360.024,-57.25
1360.039,-57.32
1360.054,-57.2
1360.069,-57.15
1360.084,-57.73
1360.099,-57.56
1360.114,-57.2
1360.129,-57.43
1360.144,-57.72
1360.159,-57.35
1360.174,-57.56
1360.189,-57.52
1360.204,-57.49
1360.219,-57.39
1360.234,-57.72
1360.249,-57.48
1360.264,-57.35
1360.279,-57.79
1360.294,-57.72
1360.309,-57.34
1360.324,-57.47
1360.339,-57.52
1360.354,-57.62
1360.369,-57.75
1360.384,-57.71
1360.399,-57.2
1360.414,-57.33
1360.429,-57.86
1360.444,-57.6
1360.459,-57.28
1360.474,-57.3
1360.489,-57.32
1360.504,-57.29
1360.519,-57.35
1360.534,-57.34
1360.549,-57.01
1360.564,-57.35
1360.579,-57.49
1360.594,-57.19
1360.609,-57.31
1360.624,-57.2
1360.639,-57.18
1360.654,-57.09
1360.669,-57.0
1360.684,-56.92
1360.699,-56.93
1360.714,-57.16
1360.729,-57.11
1360.744,-56.88
1360.759,-56.94
1360.774,-57.02
1360.789,-57.13
1360.804,-57.23
1360.819,-57.35
1360.834,-57.38
1360.849,-57.42
1360.864,-57.55
1360.879,-57.35
1360.894,-57.29
1360.909,-57.21
1360.924,-57.35
1360.939,-57.26
1360.954,-57.12
1360.969,-57.21
1360.984,-57.45
1360.999,-57.3
1361.014,-57.23
1361.029,-57.36
1361.044,-57.19
1361.059,-57.25
1361.074,-57.46
1361.089,-57.34
1361.104,-57.24
1361.119,-57.39
1361.134,-57.66
1361.149,-57.5
1361.164,-57.69
1361.179,-57.7
1361.194,-57.57
1361.209,-57.69
1361.224,-57.78
1361.239,-57.71
1361.254,-57.62
1361.269,-57.62
1361.284,-57.63
1361.299,-57.43
1361.314,-57.88
1361.329,-57.82
1361.344,-57.8
1361.359,-57.73
1361.374,-57.8
1361.389,-57.61
1361.404,-57.65
1361.419,-57.95
1361.434,-57.54
1361.449,-57.55
1361.464,-57.83
1361.479,-57.77
1361.494,-57.82
1361.509,-58.02
1361.524,-57.87
1361.539,-57.73
1361.554,-57.88
1361.569,-57.56
1361.584,-57.44
1361.599,-57.81
1361.614,-57.79
1361.629,-57.59
1361.644,-57.94
1361.659,-57.94
1361.674,-57.77
1361.689,-57.97
1361.704,-58.07
1361.719,-57.65
1361.734,-57.93
1361.749,-58.29
1361.764,-58.08
1361.779,-58.19
1361.794,-58.46
1361.809,-58.05
1361.824,-57.81
1361.839,-58.44
1361.854,-57.93
1361.869,-57.69
1361.884,-58.21
1361.899,-58.13
1361.914,-57.97
1361.929,-58.07
1361.944,-58.21
1361.959,-58.04
1361.974,-58.51
1361.989,-58.54
1362.004,-57.99
1362.019,-58.24
1362.034,-58.31
1362.049,-58.09
1362.064,-58.04
1362.079,-58.2
1362.094,-58.16
1362.109,-58.06
1362.124,-58.55
1362.139,-58.0
1362.154,-57.71
1362.169,-57.92
1362.184,-57.73
1362.199,-57.62
1362.214,-57.76
1362.229,-57.91
1362.244,-57.52
1362.259,-58.08
1362.274,-58.56
1362.289,-57.85
1362.304,-58.1
1362.319,-58.13
1362.334,-57.97
1362.349,-57.81
1362.364,-58.09
1362.379,-57.45
1362.394,-57.5
1362.409,-58.01
1362.424,-57.87
1362.439,-57.62
1362.454,-57.86
1362.469,-57.97
1362.484,-57.74
1362.499,-57.9
1362.514,-57.72
1362.529,-57.34
1362.544,-57.55
1362.559,-57.96
1362.574,-57.75
1362.589,-57.8
1362.604,-57.91
1362.619,-57.77
1362.634,-57.89
1362.649,-57.95
1362.664,-57.55
1362.679,-57.5
1362.694,-57.72
1362.709,-57.85
1362.724,-57.82
1362.739,-57.69
1362.754,-57.71
1362.769,-57.69
1362.784,-57.64
1362.799,-57.67
1362.814,-57.36
1362.829,-57.47
1362.844,-57.5
1362.859,-57.57
1362.874,-57.56
1362.889,-57.5
1362.904,-57.45
1362.919,-57.49
1362.934,-57.99
1362.949,-57.66
1362.964,-57.56
1362.979,-57.34
1362.994,-57.49
1363.009,-57.43
1363.024,-57.38
1363.039,-57.36
1363.054,-57.43
1363.069,-57.65
1363.084,-57.87
1363.099,-57.52
1363.114,-57.48
1363.129,-57.47
1363.144,-57.73
1363.159,-57.73
1363.174,-57.73
1363.189,-57.92
1363.204,-57.83
1363.219,-58.25
1363.234,-57.99
1363.249,-57.94
1363.264,-57.77
1363.279,-57.79
1363.294,-57.82
1363.309,-57.69
1363.324,-57.58
1363.339,-57.32
1363.354,-57.53
1363.369,-57.82
1363.384,-58.04
1363.399,-57.92
1363.414,-57.79
1363.429,-57.98
1363.444,-57.92
1363.459,-57.94
1363.474,-57.69
1363.489,-57.67
1363.504,-57.88
1363.519,-58.05
1363.534,-58.15
1363.549,-58.07
1363.564,-57.86
1363.579,-58.08
1363.594,-57.95
1363.609,-58.15
1363.624,-57.73
1363.639,-57.7
1363.654,-57.92
1363.669,-58.27
1363.684,-58.3
1363.699,-58.2
1363.714,-58.35
1363.729,-58.26
1363.744,-58.84
1363.759,-58.65
1363.774,-58.34
1363.789,-58.58
1363.804,-58.66
1363.819,-58.78
1363.834,-58.75
1363.849,-58.44
1363.864,-58.53
1363.879,-58.53
1363.894,-58.84
1363.909,-58.42
1363.924,-58.33
1363.939,-58.17
1363.954,-58.2
1363.969,-58.09
1363.984,-58.18
1363.999,-58.13
1364.014,-57.99
1364.029,-58.44
1364.044,-58.44
1364.059,-58.18
1364.074,-58.13
1364.089,-58.06
1364.104,-58.1
1364.119,-58.22
1364.134,-58.08
1364.149,-57.65
1364.164,-57.55
1364.179,-57.92
1364.194,-57.66
1364.209,-57.62
1364.224,-57.43
1364.239,-57.6
1364.254,-57.8
1364.269,-57.7
1364.284,-57.51
1364.299,-57.38
1364.314,-57.48
1364.329,-57.63
1364.344,-57.77
1364.359,-57.72
1364.374,-57.41
1364.389,-57.57
1364.404,-57.63
1364.419,-58.12
1364.434,-57.56
1364.449,-57.42
1364.464,-57.6
1364.479,-57.84
1364.494,-57.76
1364.509,-57.68
1364.524,-57.64
1364.539,-57.7
1364.554,-57.91
1364.569,-58.16
1364.584,-57.79
1364.599,-57.96
1364.614,-57.87
1364.629,-57.99
1364.644,-58.23
1364.659,-58.04
1364.674,-57.72
1364.689,-57.58
1364.704,-58.0
1364.719,-57.78
1364.734,-57.66
1364.749,-57.48
1364.764,-57.5
1364.779,-57.53
1364.794,-57.78
1364.809,-57.58
1364.824,-57.31
1364.839,-57.59
1364.854,-57.94
1364.869,-57.64
1364.884,-57.64
1364.899,-57.63
1364.914,-57.34
1364.929,-57.63
1364.944,-57.99
1364.959,-57.67
1364.974,-57.66
1364.989,-58.04
1365.004,-57.99
1365.019,-58.02
1365.034,-58.25
1365.049,-57.85
1365.064,-57.62
1365.079,-57.96
1365.094,-58.05
1365.109,-57.69
1365.124,-57.66
1365.139,-57.88
1365.154,-57.6
1365.169,-58.12
1365.184,-58.33
1365.199,-57.81
1365.214,-57.78
1365.229,-58.44
1365.245,-58.15
1365.259,-57.87
1365.274,-58.53
1365.289,-58.07
1365.304,-58.02
1365.319,-58.48
1365.334,-58.33
1365.349,-57.96
1365.365,-58.12
1365.38,-58.6
1365.395,-57.99
1365.409,-58.29
1365.424,-58.11
1365.439,-57.8
1365.454,-58.03
1365.469,-58.57
1365.484,-58.07
1365.5,-58.06
1365.515,-58.46
1365.53,-58.0
1365.544,-57.91
1365.559,-58.41
1365.574,-58.0
1365.589,-57.79
1365.604,-58.25
1365.62,-58.28
1365.635,-58.03
1365.65,-58.48
1365.665,-58.52
1365.68,-58.2
1365.694,-58.79
1365.709,-58.84
1365.724,-58.15
1365.74,-58.27
1365.755,-58.33
1365.77,-57.96
1365.785,-58.25
1365.8,-58.44
1365.815,-58.04
1365.83,-58.27
1365.844,-58.69
1365.859,-58.32
1365.875,-58.47
1365.89,-58.95
1365.905,-58.34
1365.92,-58.57
1365.935,-59.09
1365.95,-58.43
1365.965,-58.13
1365.979,-58.61
1365.995,-58.29
1366.01,-57.83
1366.025,-58.35
1366.04,-58.1
1366.055,-57.9
1366.07,-58.37
1366.085,-58.47
1366.1,-58.1
1366.115,-58.59
1366.13,-58.82
1366.145,-58.26
1366.16,-58.98
1366.175,-59.19
1366.19,-58.39
1366.205,-58.42
1366.22,-58.76
1366.235,-58.08
1366.25,-58.0
1366.265,-58.49
1366.28,-57.77
1366.295,-57.77
1366.31,-58.38
1366.325,-58.24
1366.34,-57.95
1366.355,-58.48
1366.37,-58.4
1366.385,-57.91
1366.4,-58.28
1366.415,-58.3
1366.43,-57.91
1366.445,-58.08
1366.46,-58.23
1366.475,-57.72
1366.49,-57.86
1366.505,-58.15
1366.52,-57.71
1366.535,-57.73
1366.55,-58.22
1366.565,-57.68
1366.58,-57.81
1366.595,-58.18
1366.61,-57.9
1366.625,-57.62
1366.64,-58.05
1366.655,-57.56
1366.67,-57.34
1366.685,-57.83
1366.7,-57.46
1366.715,-57.17
1366.73,-57.69
1366.745,-57.78
1366.76,-57.67
1366.775,-57.88
1366.79,-58.09
1366.805,-57.52
1366.82,-57.94
1366.835,-57.97
1366.85,-57.49
1366.865,-57.58
1366.88,-57.65
1366.895,-57.17
1366.91,-57.35
1366.925,-57.71
1366.94,-57.23
1366.955,-57.28
1366.97,-57.76
1366.985,-57.41
1367.0,-57.54
1367.015,-57.99
1367.03,-57.85
1367.045,-57.45
1367.06,-58.1
1367.075,-57.82
1367.09,-57.56
1367.105,-57.77
1367.12,-57.52
1367.135,-57.2
1367.15,-57.29
1367.165,-57.48
1367.18,-56.97
1367.195,-57.3
1367.21,-57.53
1367.225,-57.27
1367.24,-57.52
1367.255,-57.83
1367.27,-57.5
1367.285,-57.44
1367.3,-57.92
1367.315,-57.41
1367.33,-57.29
1367.345,-57.71
1367.36,-57.31
1367.375,-57.13
1367.39,-57.45
1367.405,-57.6
1367.42,-57.39
1367.435,-57.77
1367.45,-57.72
1367.465,-57.56
1367.48,-57.79
1367.495,-58.04
1367.51,-57.65
1367.525,-57.72
1367.54,-58.03
1367.555,-57.47
1367.57,-57.8
1367.585,-57.82
1367.6,-57.51
1367.615,-57.58
1367.63,-58.04
1367.645,-57.46
1367.66,-57.52
1367.675,-58.09
1367.69,-57.76
1367.705,-57.77
1367.72,-58.18
1367.735,-57.91
1367.75,-57.67
1367.765,-58.22
1367.78,-58.02
1367.795,-57.55
1367.81,-58.05
1367.825,-57.82
1367.84,-57.47
1367.855,-58.11
1367.87,-57.89
1367.885,-57.54
1367.9,-57.87
1367.915,-58.16
1367.93,-57.65
1367.945,-57.93
1367.96,-57.93
1367.975,-57.59
1367.99,-57.91
1368.005,-58.09
1368.02,-57.67
1368.035,-57.43
1368.05,-58.07
1368.065,-57.42
1368.08,-57.82
1368.095,-57.79
1368.11,-57.55
1368.125,-57.47
1368.14,-57.94
1368.155,-58.11
1368.17,-57.62
1368.185,-58.03
1368.2,-57.66
1368.215,-57.55
1368.23,-58.07
1368.245,-58.06
1368.26,-57.64
1368.275,-57.72
1368.29,-57.75
1368.305,-57.34
1368.32,-57.76
1368.335,-57.75
1368.35,-57.34
1368.365,-57.51
1368.38,-57.99
1368.395,-57.89
1368.41,-57.9
1368.425,-58.0
1368.44,-57.62
1368.455,-57.74
1368.47,-58.19
1368.485,-58.15
1368.5,-58.05
1368.515,-58.01
1368.53,-58.02
1368.545,-58.1
1368.56,-58.73
1368.575,-58.35
1368.59,-57.93
1368.605,-58.52
1368.62,-58.33
1368.635,-58.11
1368.65,-58.54
1368.665,-58.45
1368.68,-58.01
1368.695,-58.25
1368.71,-58.46
1368.725,-58.11
1368.74,-58.28
1368.755,-58.26
1368.77,-57.76
1368.785,-58.19
1368.8,-58.5
1368.815,-58.07
1368.83,-57.9
1368.845,-58.81
1368.86,-58.24
1368.875,-58.59
1368.89,-58.81
1368.905,-58.46
1368.92,-58.08
1368.935,-58.65
1368.95,-58.28
1368.965,-58.26
1368.98,-58.53
1368.995,-58.07
1369.01,-57.92
1369.025,-58.42
1369.04,-58.45
1369.055,-57.85
1369.07,-58.45
1369.085,-58.3
1369.1,-58.11
1369.115,-58.72
1369.13,-58.71
1369.145,-58.19
1369.16,-58.39
1369.175,-58.75
1369.19,-58.31
1369.205,-58.43
1369.22,-58.55
1369.235,-57.9
1369.25,-57.97
1369.265,-58.42
1369.28,-57.99
1369.295,-58.2
1369.31,-58.87
1369.325,-58.56
1369.34,-58.73
1369.355,-59.26
1369.37,-58.91
1369.385,-58.6
1369.4,-59.07
1369.415,-58.85
1369.43,-58.52
1369.445,-58.6
1369.46,-58.43
1369.475,-57.95
1369.49,-58.36
1369.505,-58.11
1369.52,-57.87
1369.535,-58.04
1369.55,-58.34
1369.565,-57.83
1369.58,-58.12
1369.595,-58.59
1369.61,-57.73
1369.625,-57.98
1369.64,-58.33
1369.655,-58.0
1369.67,-58.3
1369.685,-58.54
1369.7,-57.97
1369.715,-58.02
1369.73,-58.61
1369.745,-58.18
1369.76,-58.0
1369.775,-58.47
1369.79,-57.92
1369.805,-57.79
1369.82,-58.24
1369.835,-58.3
1369.85,-57.72
1369.865,-57.97
1369.88,-57.58
1369.895,-57.46
1369.91,-57.88
1369.925,-58.01
1369.94,-57.57
1369.955,-57.79
1369.97,-58.09
1369.985,-57.73
1370.0,-58.48
