wavelength_axis,light_level
1250.0,-57.43
1250.015,-57.81
1250.03,-57.87
1250.045,-57.4
1250.06,-57.31
1250.075,-57.25
1250.09,-57.8
1250.105,-57.65
1250.12,-57.6
1250.135,-57.25
1250.15,-57.53
1250.165,-57.54
1250.18,-57.97
1250.195,-57.77
1250.21,-57.56
1250.225,-57.34
1250.24,-57.53
1250.255,-57.76
1250.27,-57.84
1250.285,-57.6
1250.3,-57.27
1250.315,-57.63
1250.33,-57.6
1250.345,-57.88
1250.36,-57.56
1250.375,-57.47
1250.39,-57.65
1250.405,-57.84
1250.42,-57.9
1250.435,-57.96
1250.45,-57.64
1250.465,-57.61
1250.48,-57.94
1250.495,-57.97
1250.51,-58.09
1250.525,-57.83
1250.54,-57.76
1250.555,-57.64
1250.57,-58.15
1250.585,-57.95
1250.6,-57.95
1250.615,-57.58
1250.63,-57.65
1250.645,-57.83
1250.66,-58.21
1250.675,-58.04
1250.69,-57.75
1250.705,-57.79
1250.72,-57.92
1250.735,-58.22
1250.75,-57.87
1250.765,-57.76
1250.78,-57.54
1250.795,-57.86
1250.81,-58.0
1250.825,-58.33
1250.84,-57.96
1250.855,-57.92
1250.87,-57.94
1250.885,-58.43
1250.9,-58.34
1250.915,-58.22
1250.93,-57.8
1250.945,-57.78
1250.96,-58.18
1250.975,-58.26
1250.99,-58.34
1251.005,-57.9
1251.02,-57.66
1251.035,-57.65
1251.05,-57.99
1251.065,-57.82
1251.08,-57.66
1251.095,-57.37
1251.11,-57.54
1251.125,-57.82
1251.14,-57.79
1251.155,-57.53
1251.17,-57.36
1251.185,-57.33
1251.2,-57.61
1251.215,-57.9
1251.23,-57.69
1251.245,-57.49
1251.26,-57.26
1251.275,-57.64
1251.29,-57.61
1251.305,-57.73
1251.32,-57.24
1251.335,-57.34
1251.35,-57.34
1251.365,-57.68
1251.38,-57.69
1251.395,-57.33
1251.41,-57.12
1251.425,-57.23
1251.44,-57.55
1251.455,-57.49
1251.47,-57.47
1251.485,-57.21
1251.5,-57.52
1251.515,-57.48
1251.53,-57.8
1251.545,-57.49
1251.56,-57.57
1251.575,-57.2
1251.59,-57.64
1251.605,-57.55
1251.62,-57.42
1251.635,-57.29
1251.65,-57.15
1251.665,-57.14
1251.68,-57.09
1251.695,-57.25
1251.71,-56.95
1251.725,-56.95
1251.74,-57.04
1251.755,-57.41
1251.77,-57.32
1251.785,-57.27
1251.8,-57.31
1251.815,-57.46
1251.83,-57.37
1251.845,-57.3
1251.86,-57.36
1251.875,-57.17
1251.89,-57.09
1251.905,-57.09
1251.92,-57.35
1251.935,-57.3
1251.95,-57.31
1251.965,-57.38
1251.98,-57.51
1251.995,-57.38
1252.01,-57.4
1252.025,-57.44
1252.04,-57.41
1252.055,-57.46
1252.07,-57.4
1252.085,-57.33
1252.1,-57.38
1252.115,-57.36
1252.13,-57.23
1252.145,-57.63
1252.16,-57.56
1252.175,-57.61
1252.19,-57.71
1252.205,-57.72
1252.22,-57.74
1252.235,-57.55
1252.25,-57.6
1252.265,-57.62
1252.28,-57.46
1252.295,-57.6
1252.31,-57.47
1252.325,-57.64
1252.34,-57.58
1252.355,-57.7
1252.37,-57.75
1252.385,-57.77
1252.4,-57.72
1252.415,-58.04
1252.43,-57.98
1252.445,-57.89
1252.46,-57.9
1252.475,-57.77
1252.49,-57.8
1252.505,-57.59
1252.52,-57.93
1252.535,-57.49
1252.55,-57.58
1252.565,-57.43
1252.58,-57.79
1252.595,-57.63
1252.61,-57.84
1252.625,-57.82
1252.64,-57.78
1252.655,-57.77
1252.67,-57.66
1252.685,-57.86
1252.7,-57.72
1252.715,-57.73
1252.73,-57.71
1252.745,-57.77
1252.76,-57.53
1252.775,-57.63
1252.79,-57.65
1252.805,-57.42
1252.82,-57.59
1252.835,-57.68
1252.85,-57.81
1252.865,-57.7
1252.88,-57.75
1252.895,-57.54
1252.91,-57.82
1252.925,-57.55
1252.94,-57.72
1252.955,-57.71
1252.97,-57.54
1252.985,-57.56
1253.0,-57.73
1253.015,-57.85
1253.03,-57.7
1253.045,-58.01
1253.06,-57.86
1253.075,-58.07
1253.09,-58.1
1253.105,-58.11
1253.12,-57.94
1253.135,-58.18
1253.15,-57.87
1253.165,-58.12
1253.18,-58.25
1253.195,-57.98
1253.21,-58.16
1253.225,-57.99
1253.24,-58.12
1253.255,-58.03
1253.271,-58.37
1253.285,-58.23
1253.3,-58.42
1253.315,-58.4
1253.33,-58.3
1253.345,-58.42
1253.36,-58.38
1253.375,-58.33
1253.391,-58.43
1253.406,-58.5
1253.421,-58.15
1253.435,-58.54
1253.45,-58.42
1253.465,-58.52
1253.48,-58.55
1253.495,-58.88
1253.51,-58.95
1253.526,-58.8
1253.541,-58.93
1253.556,-58.83
1253.571,-58.81
1253.585,-58.68
1253.6,-58.84
1253.615,-58.25
1253.63,-58.48
1253.646,-58.53
1253.661,-58.88
1253.676,-58.7
1253.691,-58.76
1253.706,-58.88
1253.72,-58.96
1253.735,-58.86
1253.75,-58.64
1253.766,-58.9
1253.781,-58.57
1253.796,-58.82
1253.811,-58.89
1253.826,-58.8
1253.841,-58.48
1253.856,-58.64
1253.87,-58.59
1253.885,-58.67
1253.901,-58.69
1253.916,-58.48
1253.931,-58.54
1253.946,-58.27
1253.961,-58.41
1253.976,-58.29
1253.991,-58.34
1254.005,-57.89
1254.021,-57.94
1254.036,-57.97
1254.051,-57.86
1254.066,-58.04
1254.081,-58.06
1254.096,-58.01
1254.111,-57.98
1254.126,-58.49
1254.141,-58.32
1254.156,-58.38
1254.171,-58.02
1254.186,-58.08
1254.201,-58.01
1254.216,-57.94
1254.231,-57.95
1254.246,-58.03
1254.261,-58.06
1254.276,-57.86
1254.291,-58.25
1254.306,-58.09
1254.321,-58.24
1254.336,-58.24
1254.351,-58.43
1254.366,-58.48
1254.381,-58.61
1254.396,-58.21
1254.411,-58.26
1254.426,-58.35
1254.441,-58.16
1254.456,-58.31
1254.471,-58.34
1254.486,-58.4
1254.501,-58.22
1254.516,-58.48
1254.531,-58.17
1254.546,-58.37
1254.561,-58.19
1254.576,-58.38
1254.591,-58.37
1254.606,-58.23
1254.621,-58.54
1254.636,-58.22
1254.651,-58.29
1254.666,-58.17
1254.681,-58.67
1254.696,-58.59
1254.711,-58.57
1254.726,-58.43
1254.741,-58.82
1254.756,-58.79
1254.771,-58.83
1254.786,-58.73
1254.801,-58.47
1254.816,-58.48
1254.831,-58.62
1254.846,-58.76
1254.861,-58.21
1254.876,-58.3
1254.891,-58.12
1254.906,-58.54
1254.921,-58.5
1254.936,-58.52
1254.951,-58.44
1254.966,-58.53
1254.981,-58.74
1254.996,-58.77
1255.011,-58.98
1255.026,-58.69
1255.041,-58.68
1255.056,-58.62
1255.071,-58.76
1255.086,-58.25
1255.101,-58.43
1255.116,-58.41
1255.131,-58.45
1255.146,-58.7
1255.161,-58.78
1255.176,-58.75
1255.191,-58.56
1255.206,-58.63
1255.221,-58.75
1255.236,-58.71
1255.251,-58.09
1255.266,-58.14
1255.281,-58.3
1255.296,-58.36
1255.311,-58.25
1255.326,-58.22
1255.341,-58.1
1255.356,-58.11
1255.371,-58.36
1255.386,-58.32
1255.401,-58.2
1255.416,-58.05
1255.431,-58.26
1255.446,-58.36
1255.461,-58.45
1255.476,-58.02
1255.491,-58.02
1255.506,-58.11
1255.521,-58.14
1255.536,-58.53
1255.551,-58.43
1255.566,-58.33
1255.581,-58.17
1255.596,-58.59
1255.611,-58.68
1255.626,-58.61
1255.641,-58.52
1255.656,-58.37
1255.671,-58.5
1255.686,-58.6
1255.701,-58.46
1255.716,-57.95
1255.731,-57.9
1255.746,-57.86
1255.761,-58.37
1255.776,-57.98
1255.791,-57.97
1255.806,-57.84
1255.821,-58.24
1255.836,-58.31
1255.851,-58.22
1255.866,-58.25
1255.881,-58.2
1255.896,-58.78
1255.911,-58.71
1255.926,-58.83
1255.941,-58.4
1255.956,-58.42
1255.971,-58.4
1255.986,-58.82
1256.001,-58.53
1256.016,-58.13
1256.031,-58.04
1256.046,-58.31
1256.061,-59.02
1256.076,-58.54
1256.091,-58.66
1256.106,-58.32
1256.121,-58.74
1256.136,-58.97
1256.151,-59.05
1256.166,-58.54
1256.181,-58.35
1256.196,-58.53
1256.211,-58.9
1256.226,-59.2
1256.241,-58.64
1256.256,-58.64
1256.271,-58.53
1256.286,-58.95
1256.301,-58.91
1256.316,-58.57
1256.331,-58.12
1256.346,-58.29
1256.361,-58.75
1256.376,-58.53
1256.391,-58.31
1256.406,-58.06
1256.421,-58.14
1256.436,-58.49
1256.451,-58.86
1256.466,-58.5
1256.481,-58.35
1256.496,-58.43
1256.511,-58.46
1256.526,-58.7
1256.541,-58.15
1256.556,-57.68
1256.571,-57.64
1256.586,-57.94
1256.601,-58.09
1256.616,-57.79
1256.631,-57.44
1256.646,-57.5
1256.661,-57.92
1256.676,-58.16
1256.691,-58.09
1256.706,-57.69
1256.721,-57.74
1256.736,-57.87
1256.751,-58.32
1256.766,-57.99
1256.781,-57.83
1256.796,-57.66
1256.811,-57.88
1256.826,-58.17
1256.841,-57.92
1256.856,-57.8
1256.871,-57.6
1256.886,-57.66
1256.901,-57.75
1256.916,-57.75
1256.931,-57.61
1256.946,-57.58
1256.961,-57.69
1256.976,-57.81
1256.991,-57.86
1257.006,-57.69
1257.021,-58.0
1257.036,-58.03
1257.051,-58.15
1257.066,-57.96
1257.081,-58.27
1257.096,-57.95
1257.111,-57.94
1257.126,-58.04
1257.141,-57.92
1257.156,-57.79
1257.171,-57.54
1257.186,-57.65
1257.201,-57.54
1257.216,-57.64
1257.231,-57.46
1257.246,-57.31
1257.261,-57.35
1257.276,-57.51
1257.291,-57.62
1257.306,-57.52
1257.321,-57.69
1257.336,-57.61
1257.351,-57.85
1257.366,-57.57
1257.381,-57.88
1257.396,-57.72
1257.411,-57.75
1257.426,-57.69
1257.441,-57.53
1257.456,-57.57
1257.471,-57.29
1257.486,-57.35
1257.501,-57.1
1257.516,-57.3
1257.531,-57.12
1257.546,-57.37
1257.561,-57.33
1257.576,-57.38
1257.591,-57.66
1257.606,-57.45
1257.621,-57.56
1257.636,-57.53
1257.651,-57.71
1257.666,-57.37
1257.681,-57.67
1257.696,-57.41
1257.711,-57.38
1257.726,-57.41
1257.741,-57.7
1257.756,-57.74
1257.771,-57.44
1257.786,-57.45
1257.801,-57.43
1257.816,-57.63
1257.831,-57.59
1257.846,-57.81
1257.861,-57.5
1257.876,-57.51
1257.891,-58.02
1257.906,-57.85
1257.921,-57.92
1257.936,-57.59
1257.951,-57.6
1257.966,-57.46
1257.981,-57.92
1257.996,-57.64
1258.011,-57.55
1258.026,-57.34
1258.041,-57.52
1258.056,-57.76
1258.071,-57.51
1258.086,-57.27
1258.101,-57.19
1258.116,-57.55
1258.131,-57.71
1258.146,-57.86
1258.161,-57.4
1258.176,-57.41
1258.191,-57.67
1258.206,-57.85
1258.221,-58.09
1258.236,-57.68
1258.251,-57.89
1258.266,-57.97
1258.281,-58.44
1258.296,-58.24
1258.311,-57.94
1258.326,-57.54
1258.341,-57.74
1258.356,-57.92
1258.371,-58.03
1258.386,-57.85
1258.401,-57.53
1258.416,-57.75
1258.431,-58.22
1258.446,-58.65
1258.461,-58.08
1258.476,-57.94
1258.491,-58.18
1258.506,-58.47
1258.521,-58.62
1258.536,-58.34
1258.551,-58.02
1258.566,-57.96
1258.581,-58.37
1258.596,-58.26
1258.611,-57.99
1258.626,-57.75
1258.641,-57.78
1258.656,-58.02
1258.671,-58.27
1258.686,-58.03
1258.701,-57.85
1258.716,-58.02
1258.731,-58.4
1258.746,-58.62
1258.761,-58.16
1258.776,-58.16
1258.791,-58.37
1258.806,-58.64
1258.821,-58.94
1258.836,-58.46
1258.851,-58.14
1258.866,-57.98
1258.881,-58.5
1258.896,-58.32
1258.911,-57.96
1258.926,-57.57
1258.941,-57.59
1258.956,-57.93
1258.971,-58.26
1258.986,-58.04
1259.001,-57.8
1259.016,-57.97
1259.031,-58.47
1259.046,-58.78
1259.061,-58.46
1259.076,-58.5
1259.091,-58.47
1259.106,-58.63
1259.121,-58.91
1259.136,-58.41
1259.151,-57.99
1259.166,-57.97
1259.181,-58.37
1259.196,-58.37
1259.211,-58.13
1259.226,-57.75
1259.241,-57.82
1259.256,-57.98
1259.271,-58.14
1259.286,-58.0
1259.301,-57.83
1259.316,-57.76
1259.331,-58.28
1259.346,-58.75
1259.361,-58.37
1259.376,-58.18
1259.391,-58.12
1259.406,-58.28
1259.421,-58.61
1259.436,-58.17
1259.451,-57.64
1259.466,-57.46
1259.481,-57.76
1259.496,-57.81
1259.511,-57.61
1259.526,-57.38
1259.541,-57.4
1259.556,-57.62
1259.571,-57.93
1259.586,-57.97
1259.601,-57.55
1259.616,-57.65
1259.631,-58.0
1259.646,-58.41
1259.661,-58.2
1259.676,-57.96
1259.691,-58.01
1259.706,-57.97
1259.721,-58.22
1259.736,-58.05
1259.751,-57.66
1259.766,-57.52
1259.781,-57.71
1259.796,-57.84
1259.811,-57.7
1259.826,-57.38
1259.841,-57.31
1259.856,-57.42
1259.871,-57.74
1259.886,-57.76
1259.901,-57.37
1259.916,-57.47
1259.931,-57.88
1259.946,-58.21
1259.961,-58.04
1259.976,-57.72
1259.991,-57.64
1260.006,-57.64
1260.021,-58.06
1260.036,-57.75
1260.051,-57.34
1260.066,-57.12
1260.081,-57.4
1260.096,-57.46
1260.111,-57.39
1260.126,-56.93
1260.141,-56.87
1260.156,-57.14
1260.171,-57.37
1260.186,-57.34
1260.201,-56.98
1260.216,-57.08
1260.231,-57.41
1260.246,-57.86
1260.261,-57.6
1260.276,-57.35
1260.291,-57.25
1260.306,-57.37
1260.321,-57.98
1260.336,-57.63
1260.351,-57.31
1260.366,-57.18
1260.381,-57.46
1260.396,-57.5
1260.411,-57.38
1260.426,-57.02
1260.441,-57.0
1260.456,-57.37
1260.471,-57.68
1260.486,-57.8
1260.501,-57.35
1260.516,-57.53
1260.531,-57.91
1260.546,-58.27
1260.561,-58.04
1260.576,-57.89
1260.591,-57.78
1260.606,-57.94
1260.621,-58.41
1260.636,-58.04
1260.651,-57.8
1260.666,-57.83
1260.681,-58.11
1260.696,-58.12
1260.711,-58.05
1260.726,-57.84
1260.741,-57.6
1260.756,-57.89
1260.771,-58.11
1260.786,-57.97
1260.801,-57.6
1260.816,-57.69
1260.831,-58.05
1260.846,-58.26
1260.861,-58.2
1260.876,-58.02
1260.891,-57.87
1260.906,-58.31
1260.921,-58.28
1260.936,-57.97
1260.951,-57.69
1260.966,-57.73
1260.981,-58.05
1260.996,-58.21
1261.011,-58.2
1261.026,-57.83
1261.041,-57.98
1261.056,-58.11
1261.071,-58.55
1261.086,-58.09
1261.101,-57.83
1261.116,-57.85
1261.131,-58.33
1261.146,-58.64
1261.161,-58.3
1261.176,-58.18
1261.191,-58.0
1261.206,-58.47
1261.221,-58.35
1261.236,-58.02
1261.251,-57.51
1261.266,-57.69
1261.281,-58.07
1261.297,-57.85
1261.312,-57.77
1261.326,-57.34
1261.341,-57.65
1261.356,-57.63
1261.371,-57.96
1261.386,-57.67
1261.401,-57.5
1261.417,-57.9
1261.432,-57.86
1261.447,-57.93
1261.461,-57.65
1261.476,-57.65
1261.491,-57.56
1261.506,-57.94
1261.521,-57.94
1261.536,-57.55
1261.552,-57.5
1261.567,-57.6
1261.582,-57.79
1261.597,-57.49
1261.611,-57.65
1261.626,-57.35
1261.641,-57.67
1261.656,-57.71
1261.672,-57.42
1261.687,-57.24
1261.702,-57.0
1261.717,-57.33
1261.732,-57.2
1261.746,-57.41
1261.761,-57.14
1261.776,-57.18
1261.792,-57.44
1261.807,-57.91
1261.822,-57.83
1261.837,-57.47
1261.852,-57.62
1261.867,-57.66
1261.882,-58.05
1261.896,-57.76
1261.911,-57.48
1261.927,-57.47
1261.942,-57.81
1261.957,-58.03
1261.972,-57.66
1261.987,-57.46
1262.002,-57.24
1262.017,-57.61
1262.031,-57.66
1262.047,-57.56
1262.062,-57.31
1262.077,-57.18
1262.092,-57.64
1262.107,-57.9
1262.122,-57.94
1262.137,-57.53
1262.152,-57.59
1262.167,-57.77
1262.182,-57.99
1262.197,-57.99
1262.212,-57.64
1262.227,-57.65
1262.242,-57.94
1262.257,-58.41
1262.272,-58.05
1262.287,-57.59
1262.302,-57.71
1262.317,-58.17
1262.332,-58.22
1262.347,-58.04
1262.362,-57.94
1262.377,-57.76
1262.392,-58.14
1262.407,-58.47
1262.422,-58.12
1262.437,-57.94
1262.452,-58.24
1262.467,-58.29
1262.482,-58.58
1262.497,-58.38
1262.512,-58.0
1262.527,-57.83
1262.542,-58.21
1262.557,-58.18
1262.572,-57.87
1262.587,-57.56
1262.602,-57.65
1262.617,-57.89
1262.632,-57.9
1262.647,-57.44
1262.662,-57.31
1262.677,-57.39
1262.692,-57.83
1262.707,-57.96
1262.722,-57.76
1262.737,-57.7
1262.752,-57.6
1262.767,-58.05
1262.782,-58.19
1262.797,-57.94
1262.812,-57.45
1262.827,-57.6
1262.842,-57.84
1262.857,-58.0
1262.872,-57.79
1262.887,-57.45
1262.902,-57.84
1262.917,-58.0
1262.932,-58.39
1262.947,-57.82
1262.962,-57.63
1262.977,-57.78
1262.992,-58.26
1263.007,-58.33
1263.022,-57.82
1263.037,-57.66
1263.052,-57.61
1263.067,-58.05
1263.082,-57.96
1263.097,-57.61
1263.112,-57.25
1263.127,-57.3
1263.142,-57.65
1263.157,-57.44
1263.172,-57.33
1263.187,-57.02
1263.202,-57.26
1263.217,-57.36
1263.232,-57.72
1263.247,-57.4
1263.262,-57.19
1263.277,-57.53
1263.292,-57.94
1263.307,-58.07
1263.322,-57.56
1263.337,-57.62
1263.352,-57.76
1263.367,-58.06
1263.382,-57.95
1263.397,-57.66
1263.412,-57.49
1263.427,-57.53
1263.442,-57.79
1263.457,-57.55
1263.472,-57.57
1263.487,-57.24
1263.502,-57.42
1263.517,-57.63
1263.532,-57.77
1263.547,-57.59
1263.562,-57.39
1263.577,-57.77
1263.592,-57.85
1263.607,-57.77
1263.622,-57.46
1263.637,-57.42
1263.652,-57.93
1263.667,-57.89
1263.682,-58.04
1263.697,-57.61
1263.712,-57.7
1263.727,-57.91
1263.742,-58.29
1263.757,-58.3
1263.772,-57.96
1263.787,-57.84
1263.802,-57.99
1263.817,-58.31
1263.832,-58.03
1263.847,-58.07
1263.862,-58.05
1263.877,-58.34
1263.892,-58.41
1263.907,-58.04
1263.922,-58.09
1263.937,-57.72
1263.952,-58.29
1263.967,-58.34
1263.982,-58.16
1263.997,-57.72
1264.012,-57.77
1264.027,-58.18
1264.042,-58.25
1264.057,-58.24
1264.072,-57.8
1264.087,-58.16
1264.102,-58.46
1264.117,-58.38
1264.132,-58.36
1264.147,-58.13
1264.162,-58.66
1264.177,-58.55
1264.192,-59.04
1264.207,-58.49
1264.222,-58.5
1264.237,-58.45
1264.252,-59.08
1264.267,-58.98
1264.282,-58.55
1264.297,-58.4
1264.312,-58.46
1264.327,-58.99
1264.342,-58.83
1264.357,-58.51
1264.372,-58.46
1264.387,-58.68
1264.402,-59.15
1264.417,-58.86
1264.432,-58.77
1264.447,-58.47
1264.462,-59.06
1264.477,-59.15
1264.492,-59.13
1264.507,-58.8
1264.522,-58.46
1264.537,-58.86
1264.552,-58.81
1264.567,-58.83
1264.582,-58.37
1264.597,-58.36
1264.612,-58.94
1264.627,-58.94
1264.642,-58.96
1264.657,-58.29
1264.672,-58.66
1264.687,-58.7
1264.702,-59.06
1264.717,-58.79
1264.732,-58.41
1264.747,-58.36
1264.762,-58.56
1264.777,-58.79
1264.792,-58.52
1264.807,-58.42
1264.822,-58.52
1264.837,-58.99
1264.852,-59.13
1264.867,-58.52
1264.882,-58.38
1264.897,-58.36
1264.912,-58.83
1264.927,-58.37
1264.942,-58.39
1264.957,-57.87
1264.972,-57.96
1264.987,-58.48
1265.002,-58.46
1265.017,-58.31
1265.032,-57.94
1265.047,-58.36
1265.062,-58.43
1265.077,-58.46
1265.092,-58.08
1265.107,-57.88
1265.122,-58.31
1265.137,-58.19
1265.152,-58.44
1265.167,-57.85
1265.182,-58.1
1265.197,-58.07
1265.212,-58.68
1265.227,-58.53
1265.242,-58.15
1265.257,-57.97
1265.272,-58.08
1265.287,-58.48
1265.302,-58.13
1265.317,-57.91
1265.332,-57.82
1265.347,-58.03
1265.362,-58.35
1265.377,-57.93
1265.392,-57.79
1265.407,-57.53
1265.422,-57.92
1265.437,-57.78
1265.452,-57.83
1265.467,-57.35
1265.482,-57.34
1265.497,-57.81
1265.512,-57.75
1265.527,-57.73
1265.542,-57.36
1265.557,-57.6
1265.572,-57.79
1265.587,-57.72
1265.602,-57.68
1265.617,-57.35
1265.632,-57.61
1265.647,-57.65
1265.662,-58.01
1265.677,-57.62
1265.692,-57.66
1265.707,-57.78
1265.722,-58.13
1265.737,-58.25
1265.752,-57.89
1265.767,-57.84
1265.782,-57.91
1265.797,-58.3
1265.812,-58.27
1265.827,-57.8
1265.842,-57.81
1265.857,-57.7
1265.872,-58.1
1265.887,-57.83
1265.902,-57.77
1265.917,-57.39
1265.932,-57.7
1265.947,-57.79
1265.962,-57.79
1265.977,-57.71
1265.992,-57.39
1266.007,-57.75
1266.022,-57.77
1266.037,-57.74
1266.052,-57.38
1266.067,-57.36
1266.082,-57.71
1266.097,-57.69
1266.112,-57.72
1266.127,-57.35
1266.142,-57.65
1266.157,-57.71
1266.172,-58.07
1266.187,-57.75
1266.202,-57.67
1266.217,-57.52
1266.232,-57.66
1266.247,-57.97
1266.262,-57.54
1266.277,-57.58
1266.292,-57.62
1266.307,-57.94
1266.322,-58.03
1266.337,-57.81
1266.352,-57.78
1266.367,-57.53
1266.382,-57.96
1266.397,-57.9
1266.412,-57.84
1266.427,-57.47
1266.442,-57.67
1266.457,-58.01
1266.472,-58.11
1266.487,-58.07
1266.502,-57.45
1266.517,-57.7
1266.532,-57.96
1266.547,-58.0
1266.562,-57.79
1266.577,-57.54
1266.592,-57.95
1266.607,-57.97
1266.622,-57.97
1266.637,-57.55
1266.652,-57.66
1266.667,-57.84
1266.682,-57.9
1266.697,-58.07
1266.712,-57.69
1266.727,-57.52
1266.742,-57.68
1266.757,-57.73
1266.772,-57.68
1266.787,-57.44
1266.802,-57.41
1266.817,-57.43
1266.832,-57.81
1266.847,-57.5
1266.862,-57.39
1266.877,-57.48
1266.892,-57.53
1266.907,-57.63
1266.922,-57.59
1266.937,-57.5
1266.952,-57.79
1266.967,-58.16
1266.982,-58.14
1266.997,-58.06
1267.012,-57.95
1267.027,-58.07
1267.042,-58.47
1267.057,-58.5
1267.072,-58.56
1267.087,-58.63
1267.102,-58.94
1267.117,-59.11
1267.132,-59.21
1267.147,-59.05
1267.162,-59.19
1267.177,-59.22
1267.192,-59.34
1267.207,-59.05
1267.222,-58.87
1267.237,-58.99
1267.252,-59.02
1267.267,-59.13
1267.282,-58.96
1267.297,-58.87
1267.312,-58.71
1267.327,-59.0
1267.342,-58.84
1267.357,-58.77
1267.372,-59.31
1267.387,-59.06
1267.402,-59.1
1267.417,-59.09
1267.432,-59.4
1267.447,-59.24
1267.462,-59.27
1267.477,-59.39
1267.492,-59.34
1267.507,-60.03
1267.522,-59.82
1267.537,-59.81
1267.552,-59.59
1267.567,-59.64
1267.582,-59.91
1267.597,-59.8
1267.612,-59.78
1267.627,-59.52
1267.642,-60.03
1267.657,-59.9
1267.672,-59.84
1267.687,-59.94
1267.702,-59.52
1267.717,-59.63
1267.732,-59.81
1267.747,-59.66
1267.762,-59.55
1267.777,-59.5
1267.792,-59.54
1267.807,-59.55
1267.822,-59.69
1267.837,-59.09
1267.852,-59.24
1267.867,-59.35
1267.882,-59.18
1267.897,-59.11
1267.912,-58.74
1267.927,-58.77
1267.942,-58.93
1267.957,-58.8
1267.972,-58.3
1267.987,-58.16
1268.002,-58.23
1268.017,-58.29
1268.032,-58.4
1268.047,-57.97
1268.062,-58.04
1268.077,-57.99
1268.092,-57.9
1268.107,-57.87
1268.122,-57.39
1268.137,-57.41
1268.152,-57.5
1268.167,-57.71
1268.182,-57.32
1268.197,-57.28
1268.212,-57.29
1268.227,-57.45
1268.242,-57.59
1268.257,-57.29
1268.272,-57.34
1268.287,-57.44
1268.302,-57.46
1268.317,-57.6
1268.332,-57.46
1268.347,-57.46
1268.362,-57.51
1268.377,-57.46
1268.392,-57.51
1268.407,-57.56
1268.422,-57.48
1268.437,-57.39
1268.452,-57.79
1268.467,-57.51
1268.482,-57.47
1268.497,-57.41
1268.512,-57.29
1268.527,-57.54
1268.542,-57.45
1268.557,-57.6
1268.572,-57.52
1268.587,-57.73
1268.602,-57.68
1268.617,-57.67
1268.632,-57.84
1268.647,-57.65
1268.662,-58.11
1268.677,-57.95
1268.692,-57.92
1268.707,-57.94
1268.722,-58.08
1268.737,-58.31
1268.752,-58.38
1268.767,-58.4
1268.782,-58.18
1268.797,-58.55
1268.812,-58.43
1268.827,-58.39
1268.842,-58.29
1268.857,-58.24
1268.872,-58.64
1268.887,-58.35
1268.902,-58.47
1268.917,-58.4
1268.932,-58.66
1268.947,-58.67
1268.962,-58.64
1268.977,-58.73
1268.992,-58.67
1269.007,-58.96
1269.022,-58.81
1269.037,-58.99
1269.052,-59.03
1269.067,-58.77
1269.082,-59.2
1269.097,-58.88
1269.112,-58.91
1269.127,-59.09
1269.142,-59.07
1269.157,-58.94
1269.172,-58.69
1269.188,-58.97
1269.202,-58.6
1269.217,-58.8
1269.232,-58.74
1269.247,-58.6
1269.262,-58.57
1269.277,-58.35
1269.292,-58.39
1269.307,-58.25
1269.323,-58.49
1269.338,-58.03
1269.352,-58.08
1269.367,-58.1
1269.382,-58.04
1269.397,-58.1
1269.412,-57.68
1269.427,-57.77
1269.443,-57.77
1269.458,-57.62
1269.473,-57.75
1269.487,-57.38
1269.502,-57.43
1269.517,-57.5
1269.532,-57.58
1269.547,-57.36
1269.563,-57.37
1269.578,-57.47
1269.593,-57.31
1269.608,-57.55
1269.623,-57.31
1269.637,-57.36
1269.652,-57.38
1269.667,-57.32
1269.682,-57.42
1269.698,-57.14
1269.713,-57.23
1269.728,-57.15
1269.743,-57.15
1269.758,-56.91
1269.772,-57.02
1269.787,-57.12
1269.802,-56.95
1269.818,-57.25
1269.833,-57.06
1269.848,-57.3
1269.863,-57.22
1269.878,-57.05
1269.893,-57.32
1269.908,-57.3
1269.922,-57.31
1269.938,-57.25
1269.953,-57.54
1269.968,-57.5
1269.983,-57.74
1269.998,-57.76
1270.013,-57.59
1270.028,-58.16
1270.043,-57.84
1270.058,-57.93
1270.073,-57.95
1270.088,-57.75
1270.103,-58.15
1270.118,-57.97
1270.133,-58.07
1270.148,-57.85
1270.163,-58.21
1270.178,-58.05
1270.193,-57.96
1270.208,-58.1
1270.223,-57.94
1270.238,-58.3
1270.253,-58.06
1270.268,-58.21
1270.283,-58.18
1270.298,-58.24
1270.313,-58.67
1270.328,-58.37
1270.343,-58.59
1270.358,-58.36
1270.373,-58.47
1270.388,-58.48
1270.403,-58.44
1270.418,-58.53
1270.433,-58.29
1270.448,-58.71
1270.463,-58.51
1270.478,-58.68
1270.493,-58.68
1270.508,-58.65
1270.523,-58.72
1270.538,-58.54
1270.553,-58.8
1270.568,-58.5
1270.583,-58.42
1270.598,-58.4
1270.613,-58.35
1270.628,-58.48
1270.643,-58.22
1270.658,-58.37
1270.673,-58.34
1270.688,-58.24
1270.703,-58.3
1270.718,-58.2
1270.733,-58.33
1270.748,-58.3
1270.763,-58.44
1270.778,-57.88
1270.793,-57.84
1270.808,-57.95
1270.823,-57.99
1270.838,-57.86
1270.853,-57.46
1270.868,-57.59
1270.883,-57.63
1270.898,-57.75
1270.913,-57.48
1270.928,-57.37
1270.943,-57.43
1270.958,-57.42
1270.973,-57.56
1270.988,-57.14
1271.003,-57.18
1271.018,-57.3
1271.033,-57.09
1271.048,-57.24
1271.063,-56.89
1271.078,-56.87
1271.093,-56.89
1271.108,-56.87
1271.123,-56.9
1271.138,-56.8
1271.153,-56.92
1271.168,-56.74
1271.183,-57.06
1271.198,-56.94
1271.213,-56.92
1271.228,-57.02
1271.243,-57.01
1271.258,-57.26
1271.273,-57.24
1271.288,-57.28
1271.303,-57.28
1271.318,-57.31
1271.333,-57.36
1271.348,-57.38
1271.363,-57.34
1271.378,-57.25
1271.393,-57.48
1271.408,-57.28
1271.423,-57.35
1271.438,-57.4
1271.453,-57.27
1271.468,-57.67
1271.483,-57.47
1271.498,-57.63
1271.513,-57.61
1271.528,-57.71
1271.543,-57.96
1271.558,-58.05
1271.573,-57.96
1271.588,-57.8
1271.603,-58.18
1271.618,-58.29
1271.633,-58.37
1271.648,-58.35
1271.663,-58.35
1271.678,-58.62
1271.693,-58.39
1271.708,-58.5
1271.723,-58.31
1271.738,-58.31
1271.753,-58.68
1271.768,-58.5
1271.783,-58.82
1271.798,-58.69
1271.813,-59.05
1271.828,-59.1
1271.843,-59.23
1271.858,-59.29
1271.873,-59.28
1271.888,-59.79
1271.903,-59.81
1271.918,-60.05
1271.933,-60.15
1271.948,-60.22
1271.963,-60.49
1271.978,-60.06
1271.993,-60.65
1272.008,-60.2
1272.023,-60.17
1272.038,-60.71
1272.053,-60.17
1272.068,-60.3
1272.083,-60.29
1272.098,-60.57
1272.113,-61.02
1272.128,-60.44
1272.143,-60.29
1272.158,-60.11
1272.173,-60.92
1272.188,-61.03
1272.203,-60.59
1272.218,-60.2
1272.233,-60.2
1272.248,-60.65
1272.263,-60.4
1272.278,-59.7
1272.293,-59.34
1272.308,-59.36
1272.323,-59.88
1272.338,-59.5
1272.353,-58.86
1272.368,-58.77
1272.383,-59.07
1272.398,-59.18
1272.413,-59.11
1272.428,-58.83
1272.443,-58.83
1272.458,-59.22
1272.473,-59.28
1272.488,-58.75
1272.503,-58.41
1272.518,-58.42
1272.533,-58.93
1272.548,-58.75
1272.563,-58.06
1272.578,-57.91
1272.593,-58.14
1272.608,-58.73
1272.623,-58.41
1272.638,-57.85
1272.653,-57.76
1272.668,-57.86
1272.683,-58.06
1272.698,-57.86
1272.713,-57.55
1272.728,-57.58
1272.743,-57.74
1272.758,-57.65
1272.773,-57.38
1272.788,-57.16
1272.803,-57.27
1272.818,-57.53
1272.833,-57.44
1272.848,-56.91
1272.863,-56.98
1272.878,-57.11
1272.893,-57.2
1272.908,-57.05
1272.923,-56.63
1272.938,-56.7
1272.953,-56.81
1272.968,-56.96
1272.983,-56.82
1272.998,-56.44
1273.013,-56.56
1273.028,-56.72
1273.043,-56.77
1273.058,-56.5
1273.073,-56.4
1273.088,-56.39
1273.103,-56.68
1273.118,-56.58
1273.133,-56.52
1273.148,-56.47
1273.163,-56.61
1273.178,-56.81
1273.193,-56.57
1273.208,-56.47
1273.223,-56.6
1273.238,-56.73
1273.253,-56.81
1273.268,-56.61
1273.283,-56.51
1273.298,-56.77
1273.313,-57.02
1273.328,-56.9
1273.343,-56.76
1273.358,-56.77
1273.373,-57.08
1273.388,-57.27
1273.403,-57.27
1273.418,-57.09
1273.433,-57.09
1273.448,-57.43
1273.463,-57.6
1273.478,-57.25
1273.493,-57.25
1273.508,-57.51
1273.523,-57.96
1273.538,-58.01
1273.553,-57.68
1273.568,-57.73
1273.583,-58.08
1273.598,-58.39
1273.613,-58.17
1273.628,-57.88
1273.643,-57.98
1273.658,-58.45
1273.673,-58.52
1273.688,-58.26
1273.703,-58.18
1273.718,-58.31
1273.733,-58.8
1273.748,-59.25
1273.763,-58.89
1273.778,-58.71
1273.793,-59.19
1273.808,-59.62
1273.823,-59.64
1273.838,-59.02
1273.853,-59.21
1273.868,-59.59
1273.883,-59.86
1273.898,-59.92
1273.913,-59.37
1273.928,-59.59
1273.943,-60.0
1273.958,-59.8
1273.973,-59.41
1273.988,-59.22
1274.003,-59.63
1274.018,-60.08
1274.033,-59.97
1274.048,-59.47
1274.063,-59.59
1274.078,-60.02
1274.093,-60.64
1274.108,-60.12
1274.123,-59.69
1274.138,-59.64
1274.153,-60.16
1274.168,-60.32
1274.183,-59.56
1274.198,-59.38
1274.213,-59.54
1274.228,-59.84
1274.243,-59.98
1274.258,-59.18
1274.273,-59.08
1274.288,-59.45
1274.303,-59.64
1274.318,-59.32
1274.333,-58.79
1274.348,-58.72
1274.363,-59.19
1274.378,-59.18
1274.393,-58.84
1274.408,-58.38
1274.423,-58.53
1274.438,-58.9
1274.453,-58.7
1274.468,-58.14
1274.483,-57.93
1274.498,-58.0
1274.513,-58.2
1274.528,-57.97
1274.543,-57.42
1274.558,-57.4
1274.573,-57.74
1274.588,-57.84
1274.603,-57.51
1274.618,-57.23
1274.633,-57.11
1274.648,-57.4
1274.663,-57.28
1274.678,-57.11
1274.693,-57.01
1274.708,-57.04
1274.723,-57.38
1274.738,-57.2
1274.753,-56.83
1274.768,-56.93
1274.783,-57.18
1274.798,-57.43
1274.813,-57.09
1274.828,-56.75
1274.843,-56.9
1274.858,-57.1
1274.873,-57.12
1274.888,-56.93
1274.903,-56.69
1274.918,-56.98
1274.933,-57.23
1274.948,-57.01
1274.963,-56.95
1274.978,-56.91
1274.993,-57.21
1275.008,-57.5
1275.023,-57.06
1275.038,-57.01
1275.053,-57.07
1275.068,-57.2
1275.083,-57.29
1275.098,-56.99
1275.113,-57.01
1275.128,-57.19
1275.143,-57.5
1275.158,-57.51
1275.173,-57.25
1275.188,-57.36
1275.203,-57.66
1275.218,-57.92
1275.233,-57.72
1275.248,-57.36
1275.263,-57.56
1275.278,-57.91
1275.293,-58.18
1275.308,-57.75
1275.323,-57.72
1275.338,-58.03
1275.353,-58.52
1275.368,-58.6
1275.383,-58.23
1275.398,-58.14
1275.413,-58.56
1275.428,-58.82
1275.443,-58.75
1275.458,-58.52
1275.473,-58.66
1275.488,-59.3
1275.503,-59.5
1275.518,-59.17
1275.533,-58.87
1275.548,-59.13
1275.563,-59.74
1275.578,-59.29
1275.593,-58.81
1275.608,-58.79
1275.623,-59.04
1275.638,-59.47
1275.653,-59.18
1275.668,-58.81
1275.683,-58.9
1275.698,-59.29
1275.713,-59.44
1275.728,-59.36
1275.743,-58.99
1275.758,-59.26
1275.773,-59.64
1275.788,-59.55
1275.803,-58.84
1275.818,-58.84
1275.833,-59.17
1275.848,-59.34
1275.863,-59.13
1275.878,-58.71
1275.893,-58.64
1275.908,-59.1
1275.923,-58.95
1275.938,-58.46
1275.953,-58.16
1275.968,-58.24
1275.983,-58.67
1275.998,-58.55
1276.013,-58.04
1276.028,-57.87
1276.043,-58.19
1276.058,-58.31
1276.073,-58.22
1276.088,-57.95
1276.103,-57.92
1276.118,-58.26
1276.133,-58.33
1276.148,-58.07
1276.163,-57.65
1276.178,-57.68
1276.193,-57.93
1276.208,-57.81
1276.223,-57.43
1276.238,-57.33
1276.253,-57.39
1276.268,-57.8
1276.283,-57.49
1276.298,-57.12
1276.313,-57.29
1276.328,-57.48
1276.343,-57.7
1276.358,-57.35
1276.373,-57.01
1276.388,-56.9
1276.403,-57.27
1276.418,-57.31
1276.433,-57.04
1276.448,-56.91
1276.463,-56.93
1276.478,-57.11
1276.493,-56.89
1276.508,-56.76
1276.523,-56.69
1276.538,-56.71
1276.553,-56.93
1276.568,-56.65
1276.583,-56.63
1276.598,-56.8
1276.613,-57.14
1276.628,-57.2
1276.643,-57.02
1276.658,-56.93
1276.673,-57.21
1276.688,-57.42
1276.703,-57.39
1276.718,-57.26
1276.733,-57.06
1276.748,-57.45
1276.763,-57.51
1276.778,-57.26
1276.793,-57.05
1276.808,-57.15
1276.823,-57.48
1276.838,-57.31
1276.853,-57.16
1276.868,-57.06
1276.883,-57.25
1276.898,-57.57
1276.913,-57.2
1276.928,-56.99
1276.943,-57.01
1276.958,-57.32
1276.973,-57.55
1276.988,-57.07
1277.003,-56.99
1277.018,-57.09
1277.033,-57.53
1277.048,-57.4
1277.063,-57.1
1277.078,-57.19
1277.093,-57.25
1277.108,-57.61
1277.123,-57.32
1277.138,-57.01
1277.153,-57.21
1277.168,-57.41
1277.183,-57.67
1277.198,-57.35
1277.214,-57.14
1277.228,-57.61
1277.243,-57.58
1277.258,-57.91
1277.273,-57.37
1277.288,-57.38
1277.303,-57.92
1277.318,-57.77
1277.333,-57.78
1277.349,-57.26
1277.364,-57.41
1277.378,-57.76
1277.393,-57.8
1277.408,-57.67
1277.423,-57.21
1277.438,-57.58
1277.453,-57.64
1277.469,-57.51
1277.484,-57.37
1277.499,-57.2
1277.514,-57.54
1277.528,-57.54
1277.543,-57.55
1277.558,-57.42
1277.573,-57.36
1277.589,-57.82
1277.604,-57.56
1277.619,-57.26
1277.634,-57.2
1277.649,-57.27
1277.663,-57.61
1277.678,-57.33
1277.693,-57.21
1277.708,-57.27
1277.724,-57.27
1277.739,-57.55
1277.754,-57.11
1277.769,-56.9
1277.784,-56.99
1277.799,-57.2
1277.813,-57.35
1277.828,-56.88
1277.844,-57.03
1277.859,-57.2
1277.874,-57.36
1277.889,-57.38
1277.904,-57.08
1277.919,-57.31
1277.934,-57.61
1277.948,-57.66
1277.964,-57.46
1277.979,-57.17
1277.994,-57.45
1278.009,-57.8
1278.024,-57.62
1278.039,-57.41
1278.054,-57.28
1278.069,-57.59
1278.084,-57.58
1278.099,-57.31
1278.114,-57.07
1278.129,-57.13
1278.144,-57.54
1278.159,-57.41
1278.174,-57.15
1278.189,-57.09
1278.204,-57.38
1278.219,-57.65
1278.234,-57.19
1278.249,-57.05
1278.264,-57.09
1278.279,-57.3
1278.294,-57.53
1278.309,-57.11
1278.324,-57.02
1278.339,-57.24
1278.354,-57.46
1278.369,-57.52
1278.384,-57.07
1278.399,-57.26
1278.414,-57.46
1278.429,-57.57
1278.444,-57.42
1278.459,-57.1
1278.474,-57.34
1278.489,-57.53
1278.504,-57.4
1278.519,-57.1
1278.534,-57.05
1278.549,-57.42
1278.564,-57.38
1278.579,-57.26
1278.594,-57.02
1278.609,-57.02
1278.624,-57.49
1278.639,-57.29
1278.654,-57.11
1278.669,-57.06
1278.684,-57.05
1278.699,-57.44
1278.714,-57.01
1278.729,-56.96
1278.744,-56.88
1278.759,-56.99
1278.774,-57.38
1278.789,-56.95
1278.804,-56.91
1278.819,-56.98
1278.834,-57.31
1278.849,-57.37
1278.864,-56.96
1278.879,-56.95
1278.894,-57.11
1278.909,-57.04
1278.924,-57.02
1278.939,-56.72
1278.954,-56.79
1278.969,-57.04
1278.984,-57.1
1278.999,-57.14
1279.014,-56.74
1279.029,-57.05
1279.044,-57.06
1279.059,-57.01
1279.074,-56.8
1279.089,-56.64
1279.104,-57.1
1279.119,-57.03
1279.134,-57.03
1279.149,-56.9
1279.164,-56.73
1279.179,-57.19
1279.194,-57.01
1279.209,-56.79
1279.224,-56.8
1279.239,-57.04
1279.254,-57.28
1279.269,-57.02
1279.284,-56.97
1279.299,-57.13
1279.314,-57.41
1279.329,-57.56
1279.344,-57.17
1279.359,-57.31
1279.374,-57.36
1279.389,-57.6
1279.404,-57.48
1279.419,-57.2
1279.434,-57.44
1279.449,-57.51
1279.464,-57.48
1279.479,-57.33
1279.494,-57.13
1279.509,-57.57
1279.524,-57.7
1279.539,-57.69
1279.554,-57.42
1279.569,-57.36
1279.584,-57.83
1279.599,-57.74
1279.614,-57.87
1279.629,-57.41
1279.644,-57.59
1279.659,-57.92
1279.674,-57.65
1279.689,-57.71
1279.704,-57.29
1279.719,-57.52
1279.734,-57.81
1279.749,-57.53
1279.764,-57.54
1279.779,-57.68
1279.794,-58.12
1279.809,-58.26
1279.824,-57.81
1279.839,-57.67
1279.854,-57.82
1279.869,-58.25
1279.884,-58.21
1279.899,-57.82
1279.914,-58.22
1279.929,-58.4
1279.944,-58.67
1279.959,-58.52
1279.974,-58.22
1279.989,-58.63
1280.004,-58.45
1280.019,-58.51
1280.034,-58.12
1280.049,-57.94
1280.064,-58.45
1280.079,-58.49
1280.094,-58.64
1280.109,-58.14
1280.124,-58.26
1280.139,-58.74
1280.154,-58.4
1280.169,-58.46
1280.184,-57.95
1280.199,-58.29
1280.214,-58.56
1280.229,-58.05
1280.244,-58.02
1280.259,-57.79
1280.274,-58.2
1280.289,-58.26
1280.304,-57.85
1280.319,-57.68
1280.334,-57.82
1280.349,-58.26
1280.364,-57.92
1280.379,-57.64
1280.394,-57.71
1280.409,-57.88
1280.424,-58.15
1280.439,-57.83
1280.454,-57.52
1280.469,-57.99
1280.484,-58.13
1280.499,-58.32
1280.514,-57.86
1280.529,-57.79
1280.544,-58.15
1280.559,-58.15
1280.574,-58.2
1280.589,-57.68
1280.604,-57.9
1280.619,-58.11
1280.634,-58.07
1280.649,-57.8
1280.664,-57.42
1280.679,-57.66
1280.694,-57.81
1280.709,-57.82
1280.724,-57.7
1280.739,-57.47
1280.754,-57.88
1280.769,-58.01
1280.784,-57.56
1280.799,-57.4
1280.814,-57.26
1280.829,-57.73
1280.844,-57.66
1280.859,-57.33
1280.874,-57.22
1280.889,-57.43
1280.904,-57.68
1280.919,-57.27
1280.934,-57.15
1280.949,-57.12
1280.964,-57.37
1280.979,-57.62
1280.994,-57.2
1281.009,-57.2
1281.024,-57.58
1281.039,-57.78
1281.054,-58.17
1281.069,-57.67
1281.084,-57.65
1281.099,-57.92
1281.114,-57.98
1281.129,-57.99
1281.144,-57.52
1281.159,-57.71
1281.174,-58.03
1281.189,-58.12
1281.204,-57.84
1281.219,-57.58
1281.234,-58.13
1281.249,-58.15
1281.264,-58.13
1281.279,-57.83
1281.294,-57.68
1281.309,-58.04
1281.324,-58.06
1281.339,-57.57
1281.354,-57.36
1281.369,-57.33
1281.384,-57.82
1281.399,-57.56
1281.414,-57.34
1281.429,-57.38
1281.444,-57.67
1281.459,-58.19
1281.474,-57.69
1281.489,-57.56
1281.504,-57.71
1281.519,-57.94
1281.534,-58.23
1281.549,-57.7
1281.564,-57.74
1281.579,-58.05
1281.594,-58.19
1281.609,-57.92
1281.624,-57.53
1281.639,-57.71
1281.654,-58.08
1281.669,-58.22
1281.684,-57.95
1281.699,-57.62
1281.714,-58.0
1281.729,-58.17
1281.744,-58.15
1281.759,-57.95
1281.774,-58.07
1281.789,-58.37
1281.804,-58.34
1281.819,-58.24
1281.834,-58.13
1281.849,-58.44
1281.864,-58.45
1281.879,-58.32
1281.894,-57.96
1281.909,-57.86
1281.924,-58.35
1281.939,-58.11
1281.954,-57.87
1281.969,-57.63
1281.984,-57.63
1281.999,-57.73
1282.014,-57.68
1282.029,-57.45
1282.044,-57.45
1282.059,-57.4
1282.074,-57.45
1282.089,-57.37
1282.104,-57.3
1282.119,-57.51
1282.134,-57.67
1282.149,-57.81
1282.164,-57.64
1282.179,-57.66
1282.194,-57.98
1282.209,-57.75
1282.224,-57.84
1282.239,-57.64
1282.254,-57.66
1282.269,-57.73
1282.284,-57.55
1282.299,-57.64
1282.314,-57.63
1282.329,-57.69
1282.344,-57.77
1282.359,-57.53
1282.374,-57.91
1282.389,-57.59
1282.404,-57.67
1282.419,-57.74
1282.434,-57.56
1282.449,-57.65
1282.464,-57.28
1282.479,-57.42
1282.494,-57.46
1282.509,-57.34
1282.524,-57.53
1282.539,-57.16
1282.554,-57.17
1282.569,-57.15
1282.584,-56.95
1282.599,-57.07
1282.614,-57.03
1282.629,-57.02
1282.644,-56.92
1282.659,-56.91
1282.674,-56.99
1282.689,-56.97
1282.704,-57.07
1282.719,-57.18
1282.734,-57.12
1282.749,-57.28
1282.764,-57.22
1282.779,-57.14
1282.794,-57.22
1282.809,-57.08
1282.824,-57.24
1282.839,-57.11
1282.854,-56.91
1282.869,-57.17
1282.884,-57.05
1282.899,-57.17
1282.914,-57.08
1282.929,-56.93
1282.944,-57.17
1282.959,-57.05
1282.974,-57.27
1282.989,-57.08
1283.004,-57.2
1283.019,-57.27
1283.034,-57.16
1283.049,-57.32
1283.064,-57.31
1283.079,-57.47
1283.094,-57.58
1283.109,-57.38
1283.124,-57.47
1283.139,-57.39
1283.154,-57.22
1283.169,-57.27
1283.184,-57.14
1283.199,-57.15
1283.214,-57.14
1283.229,-57.07
1283.244,-57.39
1283.259,-57.41
1283.274,-57.39
1283.289,-57.32
1283.304,-57.4
1283.319,-57.62
1283.334,-57.68
1283.349,-57.71
1283.364,-57.78
1283.379,-57.65
1283.394,-58.08
1283.409,-57.79
1283.424,-57.9
1283.439,-57.83
1283.454,-57.78
1283.469,-57.87
1283.484,-57.66
1283.499,-57.66
1283.514,-57.6
1283.529,-57.54
1283.544,-57.64
1283.559,-57.57
1283.574,-57.72
1283.589,-57.61
1283.604,-57.69
1283.619,-57.63
1283.634,-57.71
1283.649,-58.08
1283.664,-58.21
1283.679,-58.32
1283.694,-58.11
1283.709,-58.27
1283.724,-58.28
1283.739,-58.32
1283.754,-57.96
1283.769,-58.01
1283.784,-58.02
1283.799,-58.07
1283.814,-57.96
1283.829,-57.81
1283.844,-58.08
1283.859,-57.99
1283.874,-58.05
1283.889,-57.93
1283.904,-57.84
1283.919,-58.23
1283.934,-58.27
1283.949,-58.2
1283.964,-58.26
1283.979,-58.21
1283.994,-58.64
1284.009,-58.32
1284.024,-58.45
1284.039,-58.39
1284.054,-58.45
1284.069,-58.68
1284.084,-58.24
1284.099,-58.05
1284.114,-58.24
1284.129,-58.11
1284.144,-58.05
1284.159,-57.99
1284.174,-58.08
1284.189,-58.62
1284.204,-58.39
1284.219,-58.43
1284.234,-58.43
1284.249,-58.35
1284.264,-58.38
1284.279,-58.43
1284.294,-58.51
1284.309,-58.52
1284.324,-58.46
1284.339,-58.36
1284.354,-57.97
1284.369,-58.19
1284.384,-58.26
1284.399,-58.12
1284.414,-58.37
1284.429,-58.18
1284.444,-58.3
1284.459,-58.09
1284.474,-58.07
1284.489,-58.3
1284.504,-58.26
1284.519,-58.44
1284.534,-58.09
1284.549,-58.18
1284.564,-58.45
1284.579,-58.27
1284.594,-58.55
1284.609,-58.61
1284.624,-58.98
1284.639,-58.95
1284.654,-58.77
1284.669,-58.62
1284.684,-58.43
1284.699,-58.36
1284.714,-58.42
1284.729,-58.19
1284.744,-58.23
1284.759,-58.45
1284.774,-58.33
1284.789,-58.35
1284.804,-57.79
1284.819,-58.05
1284.834,-58.23
1284.849,-57.85
1284.864,-58.05
1284.879,-57.67
1284.894,-57.99
1284.909,-58.1
1284.924,-57.72
1284.939,-57.84
1284.954,-57.78
1284.969,-58.03
1284.984,-57.92
1284.999,-57.55
1285.014,-57.91
1285.029,-57.72
1285.044,-57.79
1285.059,-57.67
1285.074,-57.35
1285.089,-57.54
1285.104,-57.49
1285.119,-57.6
1285.134,-57.73
1285.149,-57.57
1285.164,-57.78
1285.179,-57.81
1285.194,-57.54
1285.209,-57.59
1285.224,-57.58
1285.24,-57.98
1285.255,-57.78
1285.269,-57.55
1285.284,-57.57
1285.299,-57.51
1285.314,-57.7
1285.329,-57.58
1285.344,-57.37
1285.359,-57.72
1285.375,-57.51
1285.39,-57.61
1285.404,-57.33
1285.419,-57.29
1285.434,-57.42
1285.449,-57.28
1285.464,-57.41
1285.479,-57.25
1285.495,-57.33
1285.51,-57.28
1285.525,-57.12
1285.54,-57.39
1285.554,-57.42
1285.569,-57.54
1285.584,-57.63
1285.599,-57.54
1285.615,-57.54
1285.63,-57.33
1285.645,-57.2
1285.66,-57.31
1285.675,-57.17
1285.689,-57.26
1285.704,-57.28
1285.719,-57.31
1285.734,-57.55
1285.75,-57.33
1285.765,-57.37
1285.78,-57.38
1285.795,-57.25
1285.81,-57.66
1285.825,-57.47
1285.839,-57.56
1285.854,-57.57
1285.87,-57.46
1285.885,-57.82
1285.9,-57.61
1285.915,-57.68
1285.93,-57.81
1285.945,-57.6
1285.96,-57.74
1285.974,-57.38
1285.99,-57.45
1286.005,-57.57
1286.02,-57.36
1286.035,-57.42
1286.05,-57.34
1286.065,-57.41
1286.08,-57.66
1286.095,-57.43
1286.11,-57.56
1286.125,-57.46
1286.14,-57.32
1286.155,-57.58
1286.17,-57.57
1286.185,-57.63
1286.2,-57.51
1286.215,-57.52
1286.23,-57.54
1286.245,-57.13
1286.26,-57.21
1286.275,-57.24
1286.29,-57.18
1286.305,-57.3
1286.32,-57.04
1286.335,-57.17
1286.35,-57.05
1286.365,-57.09
1286.38,-57.22
1286.395,-57.06
1286.41,-57.28
1286.425,-57.45
1286.44,-57.46
1286.455,-57.5
1286.47,-57.4
1286.485,-57.65
1286.5,-57.38
1286.515,-57.58
1286.53,-57.61
1286.545,-57.55
1286.56,-57.62
1286.575,-57.24
1286.59,-57.06
1286.605,-57.39
1286.62,-57.21
1286.635,-57.32
1286.65,-57.35
1286.665,-57.24
1286.68,-57.65
1286.695,-57.57
1286.71,-57.7
1286.725,-57.52
1286.74,-57.43
1286.755,-57.68
1286.77,-57.41
1286.785,-57.31
1286.8,-57.48
1286.815,-57.47
1286.83,-57.62
1286.845,-57.33
1286.86,-57.25
1286.875,-57.57
1286.89,-57.41
1286.905,-57.59
1286.92,-57.25
1286.935,-57.22
1286.95,-57.6
1286.965,-57.42
1286.98,-57.27
1286.995,-57.26
1287.01,-57.26
1287.025,-57.47
1287.04,-57.13
1287.055,-57.21
1287.07,-57.45
1287.085,-57.31
1287.1,-57.47
1287.115,-57.29
1287.13,-57.43
1287.145,-57.75
1287.16,-57.67
1287.175,-57.52
1287.19,-57.31
1287.205,-57.54
1287.22,-57.78
1287.235,-57.43
1287.25,-57.46
1287.265,-57.45
1287.28,-57.66
1287.295,-57.92
1287.31,-57.52
1287.325,-57.62
1287.34,-57.86
1287.355,-58.29
1287.37,-58.21
1287.385,-57.91
1287.4,-58.0
1287.415,-58.27
1287.43,-58.16
1287.445,-57.62
1287.46,-57.51
1287.475,-57.74
1287.49,-58.02
1287.505,-58.0
1287.52,-57.47
1287.535,-57.83
1287.55,-58.06
1287.565,-58.13
1287.58,-57.87
1287.595,-58.03
1287.61,-58.16
1287.625,-58.24
1287.64,-57.78
1287.655,-57.65
1287.67,-57.8
1287.685,-57.98
1287.7,-57.71
1287.715,-57.35
1287.73,-57.6
1287.745,-57.73
1287.76,-57.84
1287.775,-57.56
1287.79,-57.59
1287.805,-57.9
1287.82,-57.96
1287.835,-57.97
1287.85,-57.71
1287.865,-57.95
1287.88,-58.18
1287.895,-58.14
1287.91,-57.63
1287.925,-57.54
1287.94,-57.83
1287.955,-57.89
1287.97,-57.5
1287.985,-57.56
1288.0,-57.71
1288.015,-58.03
1288.03,-57.94
1288.045,-57.85
1288.06,-57.85
1288.075,-58.04
1288.09,-58.11
1288.105,-57.52
1288.12,-57.49
1288.135,-57.52
1288.15,-57.7
1288.165,-57.44
1288.18,-57.23
1288.195,-57.61
1288.21,-57.78
1288.225,-57.53
1288.24,-57.37
1288.255,-57.48
1288.27,-57.87
1288.285,-57.98
1288.3,-57.52
1288.315,-57.43
1288.33,-57.62
1288.345,-57.73
1288.36,-57.34
1288.375,-57.09
1288.39,-57.41
1288.405,-57.79
1288.42,-57.52
1288.435,-57.14
1288.45,-57.4
1288.465,-57.79
1288.48,-57.65
1288.495,-57.41
1288.51,-57.17
1288.525,-57.64
1288.54,-57.64
1288.555,-57.39
1288.57,-57.09
1288.585,-57.12
1288.6,-57.49
1288.615,-57.23
1288.63,-57.04
1288.645,-57.15
1288.66,-57.47
1288.675,-57.85
1288.69,-57.52
1288.705,-57.36
1288.72,-57.61
1288.735,-57.72
1288.75,-57.63
1288.765,-57.28
1288.78,-57.33
1288.795,-57.76
1288.81,-57.64
1288.825,-57.43
1288.84,-57.22
1288.855,-57.64
1288.87,-57.84
1288.885,-57.64
1288.9,-57.4
1288.915,-57.56
1288.93,-57.94
1288.945,-57.81
1288.96,-57.44
1288.975,-57.43
1288.99,-57.72
1289.005,-57.79
1289.02,-57.53
1289.035,-57.29
1289.05,-57.69
1289.065,-57.9
1289.08,-57.75
1289.095,-57.39
1289.11,-57.72
1289.125,-58.14
1289.14,-58.18
1289.155,-57.77
1289.17,-57.67
1289.185,-58.05
1289.2,-57.9
1289.215,-57.57
1289.23,-57.35
1289.245,-57.37
1289.26,-57.57
1289.275,-57.43
1289.29,-57.2
1289.305,-57.24
1289.32,-57.63
1289.335,-57.88
1289.35,-57.54
1289.365,-57.55
1289.38,-57.75
1289.395,-57.69
1289.41,-57.18
1289.425,-57.14
1289.44,-57.2
1289.455,-57.37
1289.47,-57.2
1289.485,-57.2
1289.5,-57.13
1289.515,-57.6
1289.53,-57.72
1289.545,-57.47
1289.56,-57.31
1289.575,-57.33
1289.59,-57.76
1289.605,-57.38
1289.62,-57.37
1289.635,-57.4
1289.65,-57.64
1289.665,-57.7
1289.68,-57.21
1289.695,-57.1
1289.71,-57.14
1289.725,-57.26
1289.74,-57.13
1289.755,-57.03
1289.77,-57.1
1289.785,-57.53
1289.8,-57.19
1289.815,-57.11
1289.83,-57.1
1289.845,-57.36
1289.86,-57.3
1289.875,-57.07
1289.89,-56.91
1289.905,-57.02
1289.92,-57.3
1289.935,-57.09
1289.95,-57.04
1289.965,-57.12
1289.98,-57.58
1289.995,-57.74
1290.01,-57.43
1290.025,-57.36
1290.04,-57.62
1290.055,-57.56
1290.07,-57.33
1290.085,-57.09
1290.1,-57.43
1290.115,-57.73
1290.13,-57.37
1290.145,-57.24
1290.16,-57.4
1290.175,-57.71
1290.19,-57.73
1290.205,-57.35
1290.22,-57.39
1290.235,-57.62
1290.25,-57.94
1290.265,-57.73
1290.28,-57.4
1290.295,-57.51
1290.31,-57.89
1290.325,-57.66
1290.34,-57.31
1290.355,-57.3
1290.37,-57.44
1290.385,-57.7
1290.4,-57.4
1290.415,-57.43
1290.43,-57.76
1290.445,-58.07
1290.46,-57.72
1290.475,-57.47
1290.49,-57.5
1290.505,-57.88
1290.52,-57.59
1290.535,-57.15
1290.55,-57.1
1290.565,-57.19
1290.58,-57.6
1290.595,-57.24
1290.61,-57.17
1290.625,-57.26
1290.64,-57.54
1290.655,-57.22
1290.67,-56.92
1290.685,-56.91
1290.7,-57.29
1290.715,-57.55
1290.73,-57.28
1290.745,-57.22
1290.76,-57.62
1290.775,-58.05
1290.79,-57.65
1290.805,-57.46
1290.82,-57.58
1290.835,-57.99
1290.85,-57.7
1290.865,-57.44
1290.88,-57.35
1290.895,-57.64
1290.91,-57.68
1290.925,-57.26
1290.94,-57.23
1290.955,-57.67
1290.97,-57.69
1290.985,-57.47
1291.0,-56.98
1291.015,-57.2
1291.03,-57.6
1291.045,-57.47
1291.06,-57.19
1291.075,-57.6
1291.09,-57.92
1291.105,-57.87
1291.12,-57.43
1291.135,-57.42
1291.15,-57.74
1291.165,-57.55
1291.18,-57.32
1291.195,-56.95
1291.21,-57.13
1291.225,-57.47
1291.24,-57.18
1291.255,-56.99
1291.27,-57.16
1291.285,-57.28
1291.3,-57.54
1291.315,-57.11
1291.33,-57.06
1291.345,-57.39
1291.36,-57.35
1291.375,-57.26
1291.39,-57.18
1291.405,-57.22
1291.42,-57.6
1291.435,-57.28
1291.45,-57.06
1291.465,-57.37
1291.48,-57.44
1291.495,-57.7
1291.51,-57.28
1291.525,-57.25
1291.54,-57.72
1291.555,-57.62
1291.57,-57.65
1291.585,-57.41
1291.6,-57.69
1291.615,-58.02
1291.63,-57.78
1291.645,-57.58
1291.66,-58.01
1291.675,-58.01
1291.69,-58.09
1291.705,-57.71
1291.72,-57.62
1291.735,-58.02
1291.75,-57.79
1291.765,-57.56
1291.78,-57.26
1291.795,-57.37
1291.81,-57.73
1291.825,-57.49
1291.84,-57.14
1291.855,-57.39
1291.87,-57.53
1291.885,-57.49
1291.9,-57.32
1291.915,-57.2
1291.93,-57.63
1291.945,-57.8
1291.96,-57.27
1291.975,-57.52
1291.99,-57.65
1292.005,-57.78
1292.02,-57.7
1292.035,-57.33
1292.05,-57.53
1292.065,-57.87
1292.08,-57.46
1292.095,-57.22
1292.11,-57.37
1292.125,-57.6
1292.14,-57.65
1292.155,-57.39
1292.17,-57.44
1292.185,-57.82
1292.2,-57.95
1292.215,-57.78
1292.23,-57.5
1292.245,-57.82
1292.26,-58.14
1292.275,-57.75
1292.29,-57.63
1292.305,-57.84
1292.32,-57.97
1292.335,-58.3
1292.35,-57.84
1292.365,-57.7
1292.38,-58.28
1292.395,-58.01
1292.41,-57.75
1292.425,-57.67
1292.44,-57.67
1292.455,-58.05
1292.47,-57.71
1292.485,-57.64
1292.5,-57.74
1292.515,-57.94
1292.53,-57.84
1292.545,-57.46
1292.56,-57.26
1292.575,-57.69
1292.59,-57.75
1292.605,-57.42
1292.62,-57.38
1292.635,-57.74
1292.65,-58.02
1292.665,-57.61
1292.68,-57.53
1292.695,-57.81
1292.71,-57.99
1292.725,-57.82
1292.74,-57.37
1292.755,-57.44
1292.77,-57.87
1292.785,-57.77
1292.8,-57.51
1292.815,-57.42
1292.83,-57.75
1292.845,-58.28
1292.86,-58.08
1292.875,-57.69
1292.89,-58.12
1292.905,-58.26
1292.92,-58.22
1292.935,-58.0
1292.95,-57.71
1292.965,-58.34
1292.98,-58.09
1292.995,-57.74
1293.01,-57.82
1293.025,-58.02
1293.04,-58.04
1293.055,-57.93
1293.07,-57.52
1293.085,-57.7
1293.1,-58.01
1293.115,-57.67
1293.13,-57.41
1293.145,-57.64
1293.16,-57.69
1293.175,-57.94
1293.19,-57.46
1293.205,-57.41
1293.22,-57.88
1293.235,-57.91
1293.25,-57.69
1293.266,-57.35
1293.281,-57.68
1293.295,-58.06
1293.31,-57.59
1293.325,-57.53
1293.34,-57.59
1293.355,-57.69
1293.37,-57.89
1293.385,-57.43
1293.401,-57.39
1293.416,-57.96
1293.43,-57.72
1293.445,-57.6
1293.46,-57.53
1293.475,-57.53
1293.49,-57.9
1293.505,-57.55
1293.521,-57.3
1293.536,-57.65
1293.551,-57.81
1293.566,-57.92
1293.58,-57.6
1293.595,-57.41
1293.61,-57.84
1293.625,-57.67
1293.641,-57.32
1293.656,-57.15
1293.671,-57.45
1293.686,-57.77
1293.701,-57.37
1293.715,-57.16
1293.73,-57.6
1293.745,-57.77
1293.76,-57.69
1293.776,-57.5
1293.791,-57.52
1293.806,-57.88
1293.821,-57.71
1293.836,-57.47
1293.851,-57.25
1293.865,-57.35
1293.88,-57.33
1293.896,-57.15
1293.911,-57.0
1293.926,-57.45
1293.941,-57.33
1293.956,-57.27
1293.971,-57.18
1293.986,-57.37
1294.001,-57.7
1294.016,-57.6
1294.031,-57.2
1294.046,-57.4
1294.061,-57.52
1294.076,-57.49
1294.091,-57.39
1294.106,-57.11
1294.121,-57.37
1294.136,-57.61
1294.151,-57.21
1294.166,-57.36
1294.181,-57.35
1294.196,-57.72
1294.211,-57.82
1294.226,-57.33
1294.241,-57.46
1294.256,-57.65
1294.271,-57.57
1294.286,-57.38
1294.301,-57.13
1294.316,-57.45
1294.331,-57.58
1294.346,-57.2
1294.361,-57.22
1294.376,-57.33
1294.391,-57.22
1294.406,-57.35
1294.421,-56.89
1294.436,-56.95
1294.451,-57.31
1294.466,-57.03
1294.481,-57.09
1294.496,-57.21
1294.511,-57.41
1294.526,-57.77
1294.541,-57.43
1294.556,-57.4
1294.571,-57.8
1294.586,-57.75
1294.601,-57.72
1294.616,-57.43
1294.631,-57.47
1294.646,-57.83
1294.661,-57.64
1294.676,-57.39
1294.691,-57.38
1294.706,-57.51
1294.721,-57.84
1294.736,-57.38
1294.751,-57.32
1294.766,-57.87
1294.781,-57.64
1294.796,-57.49
1294.811,-57.51
1294.826,-57.65
1294.841,-58.09
1294.856,-57.88
1294.871,-57.53
1294.886,-57.91
1294.901,-58.07
1294.916,-58.04
1294.931,-57.63
1294.946,-57.55
1294.961,-58.02
1294.976,-57.88
1294.991,-57.51
1295.006,-57.36
1295.021,-57.59
1295.036,-57.98
1295.051,-57.74
1295.066,-57.37
1295.081,-57.83
1295.096,-58.07
1295.111,-58.08
1295.126,-57.86
1295.141,-57.67
1295.156,-58.11
1295.171,-57.99
1295.186,-57.63
1295.201,-57.45
1295.216,-57.67
1295.231,-57.62
1295.246,-57.44
1295.261,-57.17
1295.276,-57.54
1295.291,-57.75
1295.306,-57.74
1295.321,-57.46
1295.336,-57.28
1295.351,-57.67
1295.366,-57.63
1295.381,-57.21
1295.396,-57.51
1295.411,-57.72
1295.426,-57.76
1295.441,-57.67
1295.456,-57.39
1295.471,-57.9
1295.486,-58.06
1295.501,-57.54
1295.516,-57.42
1295.531,-57.43
1295.546,-57.44
1295.561,-57.52
1295.576,-57.08
1295.591,-57.21
1295.606,-57.55
1295.621,-57.43
1295.636,-57.48
1295.651,-57.65
1295.666,-57.97
1295.681,-58.14
1295.696,-57.64
1295.711,-57.7
1295.726,-57.82
1295.741,-57.85
1295.756,-57.82
1295.771,-57.67
1295.786,-57.82
1295.801,-58.27
1295.816,-57.83
1295.831,-57.67
1295.846,-57.64
1295.861,-57.62
1295.876,-57.62
1295.891,-57.58
1295.906,-57.35
1295.921,-57.67
1295.936,-57.62
1295.951,-57.65
1295.966,-57.64
1295.981,-57.74
1295.996,-57.72
1296.011,-57.54
1296.026,-57.34
1296.041,-57.33
1296.056,-57.5
1296.071,-57.47
1296.086,-57.37
1296.101,-57.55
1296.116,-57.54
1296.131,-57.62
1296.146,-57.51
1296.161,-57.54
1296.176,-57.67
1296.191,-57.66
1296.206,-57.61
1296.221,-57.55
1296.236,-57.69
1296.251,-57.82
1296.266,-57.92
1296.281,-57.8
1296.296,-57.88
1296.311,-57.91
1296.326,-57.83
1296.341,-58.26
1296.356,-58.23
1296.371,-58.41
1296.386,-58.53
1296.401,-58.4
1296.416,-58.39
1296.431,-58.53
1296.446,-58.48
1296.461,-58.69
1296.476,-58.35
1296.491,-58.53
1296.506,-58.65
1296.521,-58.6
1296.536,-58.39
1296.551,-58.72
1296.566,-58.4
1296.581,-58.58
1296.596,-58.33
1296.611,-58.21
1296.626,-58.58
1296.641,-58.65
1296.656,-58.21
1296.671,-58.22
1296.686,-57.93
1296.701,-58.01
1296.716,-58.0
1296.731,-57.99
1296.746,-58.09
1296.761,-58.02
1296.776,-57.8
1296.791,-57.94
1296.806,-57.76
1296.821,-57.74
1296.836,-57.87
1296.851,-57.63
1296.866,-57.85
1296.881,-57.94
1296.896,-57.73
1296.911,-58.12
1296.926,-57.97
1296.941,-58.08
1296.956,-58.07
1296.971,-57.96
1296.986,-58.02
1297.001,-58.14
1297.016,-58.15
1297.031,-58.44
1297.046,-58.6
1297.061,-58.62
1297.076,-58.7
1297.091,-58.6
1297.106,-58.38
1297.121,-58.64
1297.136,-58.34
1297.151,-58.66
1297.166,-58.8
1297.181,-58.65
1297.196,-58.86
1297.211,-58.85
1297.226,-58.7
1297.241,-59.06
1297.256,-58.79
1297.271,-58.8
1297.286,-58.71
1297.301,-58.58
1297.316,-58.78
1297.331,-58.74
1297.346,-58.49
1297.361,-58.63
1297.376,-58.26
1297.391,-58.2
1297.406,-58.2
1297.421,-57.9
1297.436,-58.17
1297.451,-58.17
1297.466,-57.99
1297.481,-58.17
1297.496,-57.98
1297.511,-57.82
1297.526,-57.83
1297.541,-57.73
1297.556,-57.72
1297.571,-57.85
1297.586,-57.69
1297.601,-57.89
1297.616,-58.09
1297.631,-57.76
1297.646,-57.76
1297.661,-57.86
1297.676,-57.73
1297.691,-58.02
1297.706,-57.96
1297.721,-58.01
1297.736,-58.13
1297.751,-58.07
1297.766,-58.37
1297.781,-58.35
1297.796,-58.09
1297.811,-58.26
1297.826,-58.16
1297.841,-58.12
1297.856,-58.33
1297.871,-58.09
1297.886,-58.43
1297.901,-58.42
1297.916,-58.16
1297.931,-58.27
1297.946,-58.14
1297.961,-58.06
1297.976,-58.28
1297.991,-58.0
1298.006,-58.28
1298.021,-58.36
1298.036,-58.22
1298.051,-58.09
1298.066,-57.98
1298.081,-57.85
1298.096,-58.02
1298.111,-57.73
1298.126,-57.72
1298.141,-57.81
1298.156,-57.8
1298.171,-57.53
1298.186,-57.65
1298.201,-57.44
1298.216,-57.62
1298.231,-57.54
1298.246,-57.37
1298.261,-57.55
1298.276,-57.39
1298.291,-57.62
1298.306,-57.79
1298.321,-57.48
1298.336,-57.71
1298.351,-57.72
1298.366,-57.56
1298.381,-57.8
1298.396,-57.67
1298.411,-57.7
1298.426,-58.14
1298.441,-57.89
1298.456,-58.08
1298.471,-58.03
1298.486,-57.89
1298.501,-58.03
1298.516,-58.11
1298.531,-58.06
1298.546,-58.38
1298.561,-58.23
1298.576,-58.43
1298.591,-58.46
1298.606,-58.38
1298.621,-58.22
1298.636,-58.48
1298.651,-58.23
1298.666,-58.29
1298.681,-58.02
1298.696,-57.98
1298.711,-58.07
1298.726,-58.08
1298.741,-57.81
1298.756,-57.95
1298.771,-57.55
1298.786,-57.6
1298.801,-57.7
1298.816,-57.55
1298.831,-57.72
1298.846,-57.73
1298.861,-57.69
1298.876,-57.94
1298.891,-57.57
1298.906,-57.5
1298.921,-57.53
1298.936,-57.5
1298.951,-57.65
1298.966,-57.73
1298.981,-57.6
1298.996,-57.8
1299.011,-57.62
1299.026,-57.6
1299.041,-57.6
1299.056,-57.46
1299.071,-57.39
1299.086,-57.49
1299.101,-57.33
1299.116,-57.59
1299.131,-57.67
1299.146,-57.79
1299.161,-57.78
1299.176,-57.83
1299.191,-57.67
1299.206,-57.81
1299.221,-57.65
1299.236,-57.71
1299.251,-57.92
1299.266,-57.8
1299.281,-57.98
1299.296,-57.85
1299.311,-57.85
1299.326,-58.11
1299.341,-57.79
1299.356,-57.85
1299.371,-57.82
1299.386,-57.69
1299.401,-57.81
1299.416,-57.75
1299.431,-57.5
1299.446,-57.63
1299.461,-57.32
1299.476,-57.38
1299.491,-57.35
1299.506,-57.21
1299.521,-57.33
1299.536,-57.34
1299.551,-57.18
1299.566,-57.32
1299.581,-57.24
1299.596,-57.06
1299.611,-57.19
1299.626,-57.02
1299.641,-57.11
1299.656,-57.16
1299.671,-56.9
1299.686,-57.3
1299.701,-57.22
1299.716,-56.97
1299.731,-57.21
1299.746,-57.14
1299.761,-56.99
1299.776,-57.22
1299.791,-57.16
1299.806,-57.32
1299.821,-57.56
1299.836,-57.35
1299.851,-57.27
1299.866,-57.52
1299.881,-57.25
1299.896,-57.5
1299.911,-57.34
1299.926,-57.52
1299.941,-57.8
1299.956,-57.5
1299.971,-57.35
1299.986,-57.46
1300.001,-57.61
1300.016,-57.69
1300.031,-57.45
1300.046,-57.4
1300.061,-57.7
1300.076,-57.73
1300.091,-57.43
1300.106,-57.61
1300.121,-57.94
1300.136,-57.63
1300.151,-57.38
1300.166,-57.26
1300.181,-57.44
1300.196,-57.67
1300.211,-57.33
1300.226,-57.3
1300.241,-57.6
1300.256,-57.43
1300.271,-57.39
1300.286,-57.07
1300.301,-57.22
1300.316,-57.4
1300.331,-57.11
1300.346,-56.97
1300.361,-57.04
1300.376,-57.48
1300.391,-57.14
1300.406,-56.98
1300.421,-56.95
1300.436,-57.38
1300.451,-57.27
1300.466,-57.11
1300.481,-57.14
1300.496,-57.69
1300.511,-57.66
1300.526,-57.35
1300.541,-57.25
1300.556,-57.59
1300.571,-57.78
1300.586,-57.25
1300.601,-57.27
1300.616,-57.5
1300.631,-57.78
1300.646,-57.65
1300.661,-57.4
1300.676,-57.69
1300.691,-57.89
1300.706,-57.68
1300.721,-57.53
1300.736,-57.54
1300.751,-57.97
1300.766,-58.13
1300.781,-57.8
1300.796,-57.76
1300.811,-58.1
1300.826,-57.84
1300.841,-57.64
1300.856,-57.77
1300.871,-58.0
1300.886,-58.31
1300.901,-57.88
1300.916,-57.87
1300.931,-58.01
1300.946,-58.0
1300.961,-57.73
1300.976,-57.77
1300.991,-58.03
1301.006,-57.95
1301.021,-57.86
1301.036,-57.66
1301.051,-57.86
1301.066,-58.09
1301.081,-57.85
1301.096,-57.92
1301.111,-57.93
1301.126,-57.81
1301.141,-58.1
1301.156,-57.91
1301.171,-57.92
1301.186,-58.16
1301.201,-58.01
1301.216,-57.88
1301.231,-57.96
1301.246,-57.71
1301.261,-57.96
1301.276,-57.73
1301.292,-57.75
1301.307,-57.94
1301.321,-57.88
1301.336,-57.62
1301.351,-57.79
1301.366,-57.82
1301.381,-57.57
1301.396,-57.84
1301.411,-57.77
1301.427,-57.97
1301.442,-58.14
1301.457,-58.09
1301.471,-58.3
1301.486,-58.17
1301.501,-57.92
1301.516,-58.17
1301.531,-58.04
1301.547,-58.06
1301.562,-58.13
1301.577,-57.9
1301.592,-58.17
1301.606,-58.16
1301.621,-58.08
1301.636,-58.4
1301.651,-58.1
1301.667,-58.07
1301.682,-58.29
1301.697,-58.43
1301.712,-58.5
1301.727,-58.83
1301.742,-58.64
1301.756,-58.62
1301.771,-58.49
1301.786,-58.38
1301.802,-58.74
1301.817,-58.73
1301.832,-58.34
1301.847,-58.34
1301.862,-58.31
1301.877,-58.39
1301.891,-58.28
1301.906,-57.97
1301.922,-58.03
1301.937,-58.34
1301.952,-58.2
1301.967,-58.03
1301.982,-58.08
1301.997,-57.92
1302.012,-58.15
1302.027,-57.8
1302.042,-57.79
1302.057,-58.02
1302.072,-58.12
1302.087,-57.85
1302.102,-57.83
1302.117,-57.88
1302.132,-57.99
1302.147,-57.76
1302.162,-57.68
1302.177,-57.78
1302.192,-58.0
1302.207,-57.64
1302.222,-57.55
1302.237,-57.5
1302.252,-57.82
1302.267,-57.92
1302.282,-57.61
1302.297,-57.67
1302.312,-57.95
1302.327,-57.81
1302.342,-57.72
1302.357,-57.85
1302.372,-57.93
1302.387,-58.24
1302.402,-58.03
1302.417,-57.81
1302.432,-58.09
1302.447,-58.07
1302.462,-57.78
1302.477,-57.49
1302.492,-57.94
1302.507,-58.19
1302.522,-57.87
1302.537,-57.65
1302.552,-57.94
1302.567,-58.16
1302.582,-57.9
1302.597,-57.54
1302.612,-57.94
1302.627,-58.07
1302.642,-57.87
1302.657,-57.6
1302.672,-57.73
1302.687,-58.22
1302.702,-57.86
1302.717,-57.38
1302.732,-57.44
1302.747,-57.9
1302.762,-57.99
1302.777,-57.64
1302.792,-57.51
1302.807,-57.7
1302.822,-57.68
1302.837,-57.49
1302.852,-57.58
1302.867,-58.13
1302.882,-57.85
1302.897,-57.7
1302.912,-57.6
1302.927,-57.91
1302.942,-58.1
1302.957,-57.67
1302.972,-57.64
1302.987,-58.04
1303.002,-58.38
1303.017,-57.91
1303.032,-57.73
1303.047,-57.78
1303.062,-58.21
1303.077,-57.81
1303.092,-57.53
1303.107,-57.63
1303.122,-58.05
1303.137,-57.72
1303.152,-57.57
1303.167,-57.53
1303.182,-57.93
1303.197,-57.93
1303.212,-57.71
1303.227,-57.77
1303.242,-58.34
1303.257,-58.35
1303.272,-57.83
1303.287,-57.7
1303.302,-57.76
1303.317,-58.02
1303.332,-57.69
1303.347,-57.84
1303.362,-57.97
1303.377,-58.26
1303.392,-57.66
1303.407,-57.46
1303.422,-57.54
1303.437,-57.7
1303.452,-57.51
1303.467,-57.35
1303.482,-57.49
1303.497,-57.49
1303.512,-57.2
1303.527,-56.96
1303.542,-57.27
1303.557,-57.47
1303.572,-57.36
1303.587,-57.29
1303.602,-57.44
1303.617,-57.64
1303.632,-57.7
1303.647,-57.36
1303.662,-57.52
1303.677,-57.84
1303.692,-57.36
1303.707,-57.29
1303.722,-57.34
1303.737,-57.6
1303.752,-57.48
1303.767,-57.13
1303.782,-57.06
1303.797,-57.6
1303.812,-57.45
1303.827,-57.07
1303.842,-57.37
1303.857,-57.35
1303.872,-57.37
1303.887,-57.3
1303.902,-57.11
1303.917,-57.45
1303.932,-57.54
1303.947,-57.12
1303.962,-57.21
1303.977,-57.64
1303.992,-57.33
1304.007,-57.11
1304.022,-56.99
1304.037,-57.26
1304.052,-57.62
1304.067,-57.11
1304.082,-56.85
1304.097,-57.36
1304.112,-57.39
1304.127,-56.87
1304.142,-57.19
1304.157,-57.32
1304.172,-57.67
1304.187,-57.3
1304.202,-56.89
1304.217,-57.27
1304.232,-57.51
1304.247,-57.02
1304.262,-57.05
1304.277,-57.37
1304.292,-57.46
1304.307,-57.74
1304.322,-57.26
1304.337,-57.5
1304.352,-57.68
1304.367,-57.32
1304.382,-57.08
1304.397,-57.47
1304.412,-57.52
1304.427,-57.55
1304.442,-57.56
1304.457,-57.52
1304.472,-57.89
1304.487,-57.74
1304.502,-57.46
1304.517,-57.69
1304.532,-57.96
1304.547,-57.71
1304.562,-57.7
1304.577,-57.72
1304.592,-57.55
1304.607,-57.81
1304.622,-57.41
1304.637,-57.27
1304.652,-57.6
1304.667,-57.47
1304.682,-57.02
1304.697,-57.27
1304.712,-57.32
1304.727,-57.39
1304.742,-57.23
1304.757,-57.0
1304.772,-57.25
1304.787,-57.45
1304.802,-57.02
1304.817,-57.11
1304.832,-57.44
1304.847,-57.25
1304.862,-57.25
1304.877,-57.24
1304.892,-57.3
1304.907,-57.38
1304.922,-57.09
1304.937,-56.95
1304.952,-57.25
1304.967,-57.14
1304.982,-56.8
1304.997,-56.87
1305.012,-57.1
1305.027,-57.07
1305.042,-57.06
1305.057,-57.13
1305.072,-57.32
1305.087,-57.61
1305.102,-57.2
1305.117,-57.25
1305.132,-57.69
1305.147,-57.46
1305.162,-57.25
1305.177,-57.17
1305.192,-57.47
1305.207,-57.47
1305.222,-57.16
1305.237,-57.03
1305.252,-57.56
1305.267,-57.5
1305.282,-56.97
1305.297,-57.03
1305.312,-57.13
1305.327,-57.18
1305.342,-56.92
1305.357,-57.02
1305.372,-57.33
1305.387,-57.47
1305.402,-57.08
1305.417,-57.05
1305.432,-57.56
1305.447,-57.32
1305.462,-57.19
1305.477,-57.1
1305.492,-57.44
1305.507,-57.47
1305.522,-57.31
1305.537,-57.11
1305.552,-57.5
1305.567,-57.46
1305.582,-57.07
1305.597,-57.28
1305.612,-57.45
1305.627,-57.53
1305.642,-57.59
1305.657,-57.15
1305.672,-57.28
1305.687,-57.7
1305.702,-57.43
1305.717,-57.22
1305.732,-57.56
1305.747,-57.56
1305.762,-57.55
1305.777,-57.24
1305.792,-57.16
1305.807,-57.58
1305.822,-57.38
1305.837,-57.08
1305.852,-57.24
1305.867,-57.52
1305.882,-57.12
1305.897,-57.02
1305.912,-56.91
1305.927,-57.2
1305.942,-57.35
1305.957,-56.98
1305.972,-57.07
1305.987,-57.45
1306.002,-57.46
1306.017,-57.04
1306.032,-57.36
1306.047,-57.36
1306.062,-57.36
1306.077,-57.11
1306.092,-56.9
1306.107,-57.41
1306.122,-57.32
1306.137,-57.04
1306.152,-57.21
1306.167,-57.22
1306.182,-57.25
1306.197,-57.06
1306.212,-57.07
1306.227,-57.22
1306.242,-57.51
1306.257,-57.06
1306.272,-56.83
1306.287,-57.3
1306.302,-57.39
1306.317,-57.31
1306.332,-57.25
1306.347,-57.46
1306.362,-57.57
1306.377,-57.35
1306.392,-57.02
1306.407,-57.22
1306.422,-57.66
1306.437,-57.51
1306.452,-57.46
1306.467,-57.53
1306.482,-57.67
1306.497,-57.49
1306.512,-57.44
1306.527,-57.34
1306.542,-57.81
1306.557,-57.48
1306.572,-57.44
1306.587,-57.38
1306.602,-57.41
1306.617,-57.35
1306.632,-57.22
1306.647,-57.08
1306.662,-57.51
1306.677,-57.43
1306.692,-57.14
1306.707,-57.31
1306.722,-57.41
1306.737,-57.48
1306.752,-57.29
1306.767,-57.31
1306.782,-57.7
1306.797,-57.88
1306.812,-57.46
1306.827,-57.49
1306.842,-57.87
1306.857,-57.68
1306.872,-57.56
1306.887,-57.5
1306.902,-57.55
1306.917,-57.95
1306.932,-57.68
1306.947,-57.39
1306.962,-57.67
1306.977,-57.81
1306.992,-57.36
1307.007,-57.35
1307.022,-57.46
1307.037,-57.58
1307.052,-57.61
1307.067,-57.24
1307.082,-57.4
1307.097,-57.75
1307.112,-57.24
1307.127,-57.13
1307.142,-57.52
1307.157,-57.3
1307.172,-57.5
1307.187,-57.12
1307.202,-57.0
1307.217,-57.3
1307.232,-57.34
1307.247,-57.01
1307.262,-57.14
1307.277,-57.55
1307.292,-57.16
1307.307,-57.03
1307.322,-56.83
1307.337,-57.13
1307.352,-57.36
1307.367,-56.88
1307.382,-56.87
1307.397,-57.31
1307.412,-57.22
1307.427,-56.92
1307.442,-56.73
1307.457,-56.93
1307.472,-57.19
1307.487,-56.81
1307.502,-56.51
1307.517,-56.71
1307.532,-56.95
1307.547,-56.61
1307.562,-56.62
1307.577,-56.78
1307.592,-56.82
1307.607,-56.78
1307.622,-56.71
1307.637,-56.84
1307.652,-57.2
1307.667,-56.83
1307.682,-56.77
1307.697,-57.12
1307.712,-57.0
1307.727,-57.04
1307.742,-56.89
1307.757,-57.11
1307.772,-57.03
1307.787,-56.82
1307.802,-56.84
1307.817,-57.0
1307.832,-57.32
1307.847,-56.98
1307.862,-57.01
1307.877,-57.13
1307.892,-57.31
1307.907,-57.16
1307.922,-57.0
1307.937,-57.27
1307.952,-57.34
1307.967,-57.1
1307.982,-57.07
1307.997,-57.34
1308.012,-57.49
1308.027,-57.5
1308.042,-57.28
1308.057,-57.56
1308.072,-57.57
1308.087,-57.34
1308.102,-57.25
1308.117,-57.68
1308.132,-57.69
1308.147,-57.37
1308.162,-57.64
1308.177,-57.51
1308.192,-57.93
1308.207,-57.88
1308.222,-57.61
1308.237,-57.78
1308.252,-57.89
1308.267,-57.68
1308.282,-57.57
1308.297,-57.98
1308.312,-57.87
1308.327,-57.93
1308.342,-58.05
1308.357,-57.85
1308.372,-58.22
1308.387,-58.02
1308.402,-57.59
1308.417,-58.03
1308.432,-58.09
1308.447,-57.88
1308.462,-57.89
1308.477,-57.84
1308.492,-57.88
1308.507,-57.99
1308.522,-58.18
1308.537,-58.13
1308.552,-58.29
1308.567,-58.1
1308.582,-57.89
1308.597,-58.21
1308.612,-58.28
1308.627,-58.12
1308.642,-58.32
1308.657,-58.0
1308.672,-57.95
1308.687,-57.99
1308.702,-57.63
1308.717,-57.85
1308.732,-57.96
1308.747,-57.69
1308.762,-57.49
1308.777,-57.88
1308.792,-57.97
1308.807,-57.67
1308.822,-57.81
1308.837,-57.59
1308.852,-57.85
1308.867,-57.77
1308.882,-57.49
1308.897,-57.64
1308.912,-57.9
1308.927,-57.77
1308.942,-57.59
1308.957,-57.87
1308.972,-57.99
1308.987,-57.95
1309.002,-57.7
1309.017,-57.68
1309.032,-57.99
1309.047,-57.94
1309.062,-57.55
1309.077,-57.81
1309.092,-57.98
1309.107,-57.84
1309.122,-57.58
1309.137,-57.6
1309.152,-58.01
1309.167,-57.68
1309.182,-57.57
1309.198,-57.54
1309.212,-57.87
1309.227,-57.85
1309.242,-57.68
1309.257,-57.92
1309.272,-58.04
1309.287,-58.1
1309.302,-57.65
1309.318,-57.78
1309.333,-58.24
1309.347,-57.79
1309.362,-57.64
1309.377,-57.73
1309.392,-57.97
1309.407,-58.01
1309.422,-57.69
1309.438,-57.66
1309.453,-58.23
1309.468,-57.88
1309.483,-57.45
1309.497,-57.71
1309.512,-58.21
1309.527,-57.8
1309.542,-57.62
1309.557,-57.7
1309.573,-58.04
1309.588,-57.8
1309.603,-57.36
1309.618,-57.46
1309.632,-57.89
1309.647,-57.66
1309.662,-57.28
1309.677,-57.6
1309.693,-57.93
1309.708,-57.82
1309.723,-57.58
1309.738,-57.81
1309.753,-58.0
1309.768,-57.85
1309.782,-57.48
1309.797,-57.4
1309.813,-57.78
1309.828,-57.54
1309.843,-57.4
1309.858,-57.47
1309.873,-57.71
1309.888,-57.6
1309.903,-57.45
1309.917,-57.67
1309.932,-57.75
1309.948,-57.62
1309.963,-57.2
1309.978,-57.19
1309.993,-57.49
1310.008,-57.55
1310.023,-57.39
1310.038,-57.31
1310.053,-57.54
1310.068,-57.5
1310.083,-57.3
1310.098,-57.49
1310.113,-57.56
1310.128,-57.68
1310.143,-57.46
1310.158,-57.41
1310.173,-57.63
1310.188,-57.68
1310.203,-57.52
1310.218,-57.47
1310.233,-57.67
1310.248,-57.52
1310.263,-57.2
1310.278,-57.41
1310.293,-57.27
1310.308,-57.4
1310.323,-57.27
1310.338,-57.12
1310.353,-57.51
1310.368,-57.54
1310.383,-57.12
1310.398,-57.17
1310.413,-57.35
1310.428,-57.19
1310.443,-57.24
1310.458,-57.21
1310.473,-57.22
1310.488,-57.47
1310.503,-57.28
1310.518,-57.19
1310.533,-57.56
1310.548,-57.54
1310.563,-57.27
1310.578,-57.29
1310.593,-57.41
1310.608,-57.39
1310.623,-57.52
1310.638,-57.55
1310.653,-57.3
1310.668,-57.53
1310.683,-57.34
1310.698,-57.13
1310.713,-57.38
1310.728,-57.38
1310.743,-57.11
1310.758,-57.38
1310.773,-57.44
1310.788,-57.49
1310.803,-57.8
1310.818,-57.69
1310.833,-57.66
1310.848,-57.64
1310.863,-57.32
1310.878,-57.53
1310.893,-57.59
1310.908,-57.44
1310.923,-57.24
1310.938,-57.38
1310.953,-57.38
1310.968,-57.5
1310.983,-57.75
1310.998,-57.6
1311.013,-57.37
1311.028,-57.34
1311.043,-57.31
1311.058,-57.28
1311.073,-57.44
1311.088,-57.33
1311.103,-57.12
1311.118,-57.35
1311.133,-57.13
1311.148,-57.24
1311.163,-57.33
1311.178,-57.21
1311.193,-57.29
1311.208,-57.25
1311.223,-57.03
1311.238,-57.26
1311.253,-57.33
1311.268,-57.31
1311.283,-57.28
1311.298,-57.43
1311.313,-57.13
1311.328,-57.23
1311.343,-57.53
1311.358,-57.2
1311.373,-57.23
1311.388,-57.34
1311.403,-57.29
1311.418,-57.36
1311.433,-57.46
1311.448,-57.44
1311.463,-57.26
1311.478,-57.45
1311.493,-57.2
1311.508,-57.3
1311.523,-57.46
1311.538,-57.06
1311.553,-57.25
1311.568,-57.17
1311.583,-57.02
1311.598,-57.18
1311.613,-57.25
1311.628,-57.2
1311.643,-57.12
1311.658,-57.3
1311.673,-57.1
1311.688,-57.35
1311.703,-57.75
1311.718,-57.5
1311.733,-57.76
1311.748,-57.68
1311.763,-57.32
1311.778,-57.64
1311.793,-57.6
1311.808,-57.27
1311.823,-57.44
1311.838,-57.42
1311.853,-57.33
1311.868,-57.5
1311.883,-57.37
1311.898,-57.26
1311.913,-57.52
1311.928,-57.38
1311.943,-57.26
1311.958,-57.54
1311.973,-57.36
1311.988,-57.27
1312.003,-57.31
1312.018,-57.38
1312.033,-57.39
1312.048,-57.43
1312.063,-57.56
1312.078,-57.24
1312.093,-57.23
1312.108,-57.29
1312.123,-57.22
1312.138,-57.35
1312.153,-57.34
1312.168,-57.16
1312.183,-57.26
1312.198,-57.06
1312.213,-57.13
1312.228,-57.37
1312.243,-57.29
1312.258,-57.47
1312.273,-57.56
1312.288,-57.37
1312.303,-57.31
1312.318,-57.66
1312.333,-57.67
1312.348,-57.49
1312.363,-57.7
1312.378,-57.47
1312.393,-57.48
1312.408,-57.65
1312.423,-57.73
1312.438,-57.84
1312.453,-57.79
1312.468,-57.68
1312.483,-57.51
1312.498,-57.86
1312.513,-57.77
1312.528,-57.48
1312.543,-57.9
1312.558,-57.64
1312.573,-57.57
1312.588,-57.75
1312.603,-57.68
1312.618,-57.56
1312.633,-57.68
1312.648,-57.47
1312.663,-57.52
1312.678,-57.85
1312.693,-57.67
1312.708,-57.24
1312.723,-57.49
1312.738,-57.23
1312.753,-57.21
1312.768,-57.45
1312.783,-57.32
1312.798,-57.18
1312.813,-57.38
1312.828,-57.42
1312.843,-57.26
1312.858,-57.5
1312.873,-57.48
1312.888,-57.19
1312.903,-57.44
1312.918,-57.25
1312.933,-57.35
1312.948,-57.59
1312.963,-57.46
1312.978,-57.44
1312.993,-57.59
1313.008,-57.61
1313.023,-57.54
1313.038,-57.64
1313.053,-57.92
1313.068,-57.55
1313.083,-57.83
1313.098,-57.89
1313.113,-57.78
1313.128,-57.88
1313.143,-57.76
1313.158,-57.63
1313.173,-57.92
1313.188,-57.97
1313.203,-57.92
1313.218,-57.88
1313.233,-58.04
1313.248,-58.16
1313.263,-57.65
1313.278,-57.56
1313.293,-57.6
1313.308,-57.77
1313.323,-57.6
1313.338,-57.58
1313.353,-57.63
1313.368,-57.54
1313.383,-57.44
1313.398,-57.51
1313.413,-57.5
1313.428,-57.41
1313.443,-57.03
1313.458,-57.1
1313.473,-57.48
1313.488,-57.4
1313.503,-57.2
1313.518,-57.12
1313.533,-57.37
1313.548,-57.38
1313.563,-57.18
1313.578,-57.35
1313.593,-57.6
1313.608,-57.49
1313.623,-57.44
1313.638,-57.65
1313.653,-58.04
1313.668,-57.67
1313.683,-57.4
1313.698,-57.36
1313.713,-57.59
1313.728,-57.42
1313.743,-57.27
1313.758,-57.43
1313.773,-57.75
1313.788,-57.48
1313.803,-57.34
1313.818,-57.63
1313.833,-57.67
1313.848,-57.5
1313.863,-57.42
1313.878,-57.4
1313.893,-57.72
1313.908,-57.58
1313.923,-57.53
1313.938,-57.67
1313.953,-57.76
1313.968,-57.46
1313.983,-57.33
1313.998,-57.55
1314.013,-57.49
1314.028,-57.13
1314.043,-57.17
1314.058,-56.96
1314.073,-57.18
1314.088,-57.08
1314.103,-56.97
1314.118,-57.16
1314.133,-57.38
1314.148,-57.17
1314.163,-57.17
1314.178,-57.28
1314.193,-57.31
1314.208,-57.09
1314.223,-57.16
1314.238,-57.07
1314.253,-56.87
1314.268,-56.99
1314.283,-56.96
1314.298,-57.23
1314.313,-57.38
1314.328,-57.08
1314.343,-57.0
1314.358,-57.19
1314.373,-57.24
1314.388,-57.55
1314.403,-57.45
1314.418,-57.38
1314.433,-57.46
1314.448,-57.57
1314.463,-57.49
1314.478,-57.35
1314.493,-57.52
1314.508,-57.41
1314.523,-57.54
1314.538,-57.8
1314.553,-57.58
1314.568,-57.38
1314.583,-57.5
1314.598,-57.31
1314.613,-57.42
1314.628,-57.46
1314.643,-57.31
1314.658,-57.15
1314.673,-57.34
1314.688,-57.25
1314.703,-57.48
1314.718,-57.61
1314.733,-57.52
1314.748,-57.46
1314.763,-57.66
1314.778,-57.59
1314.793,-57.73
1314.808,-57.91
1314.823,-57.71
1314.838,-57.52
1314.853,-57.88
1314.868,-57.64
1314.883,-57.83
1314.898,-58.1
1314.913,-57.89
1314.928,-57.72
1314.943,-57.88
1314.958,-57.93
1314.973,-57.7
1314.988,-57.81
1315.003,-58.1
1315.018,-57.81
1315.033,-58.22
1315.048,-58.11
1315.063,-58.26
1315.078,-58.47
1315.093,-58.2
1315.108,-58.11
1315.123,-58.34
1315.138,-58.35
1315.153,-57.98
1315.168,-58.17
1315.183,-58.59
1315.198,-58.19
1315.213,-58.03
1315.228,-58.01
1315.243,-58.06
1315.258,-58.28
1315.273,-58.05
1315.288,-58.02
1315.303,-58.27
1315.318,-58.05
1315.333,-57.82
1315.348,-58.12
1315.363,-58.44
1315.378,-58.24
1315.393,-57.53
1315.408,-57.72
1315.423,-58.18
1315.438,-57.72
1315.453,-57.61
1315.468,-57.61
1315.483,-57.71
1315.498,-57.74
1315.513,-57.46
1315.528,-57.54
1315.543,-57.65
1315.558,-57.41
1315.573,-57.35
1315.588,-57.45
1315.603,-57.79
1315.618,-57.29
1315.633,-57.2
1315.648,-57.56
1315.663,-57.6
1315.678,-57.57
1315.693,-57.47
1315.708,-57.53
1315.723,-57.79
1315.738,-57.52
1315.753,-57.47
1315.768,-57.79
1315.783,-57.82
1315.798,-57.3
1315.813,-57.1
1315.828,-57.43
1315.843,-57.54
1315.858,-57.04
1315.873,-57.05
1315.888,-57.16
1315.903,-57.09
1315.918,-56.98
1315.933,-57.04
1315.948,-57.16
1315.963,-57.11
1315.978,-56.95
1315.993,-57.09
1316.008,-57.07
1316.023,-57.17
1316.038,-56.78
1316.053,-56.89
1316.068,-57.38
1316.083,-57.02
1316.098,-56.88
1316.113,-57.03
1316.128,-57.2
1316.143,-57.07
1316.158,-57.0
1316.173,-57.08
1316.188,-57.01
1316.203,-56.9
1316.218,-56.84
1316.233,-57.03
1316.248,-57.45
1316.263,-57.08
1316.278,-56.96
1316.293,-57.31
1316.308,-57.26
1316.323,-57.24
1316.338,-57.17
1316.353,-57.23
1316.368,-57.29
1316.383,-57.06
1316.398,-57.07
1316.413,-57.23
1316.428,-57.23
1316.443,-57.17
1316.458,-57.12
1316.473,-57.5
1316.488,-57.38
1316.503,-57.0
1316.518,-57.13
1316.533,-57.24
1316.548,-57.33
1316.563,-57.15
1316.578,-57.26
1316.593,-57.39
1316.608,-57.34
1316.623,-57.34
1316.638,-57.39
1316.653,-57.52
1316.668,-57.47
1316.683,-57.07
1316.698,-57.2
1316.713,-57.62
1316.728,-57.16
1316.743,-56.99
1316.758,-57.41
1316.773,-57.36
1316.788,-56.89
1316.803,-56.85
1316.818,-56.99
1316.833,-57.25
1316.848,-57.1
1316.863,-56.97
1316.878,-57.16
1316.893,-57.57
1316.908,-57.2
1316.923,-57.04
1316.938,-57.43
1316.953,-57.57
1316.968,-57.06
1316.983,-57.24
1316.998,-57.67
1317.013,-57.55
1317.028,-57.13
1317.043,-57.37
1317.058,-57.84
1317.073,-57.32
1317.088,-57.39
1317.103,-57.23
1317.118,-57.44
1317.133,-57.34
1317.148,-56.94
1317.163,-56.95
1317.178,-57.35
1317.193,-57.22
1317.208,-56.96
1317.224,-57.35
1317.238,-57.62
1317.253,-57.12
1317.268,-57.09
1317.283,-57.46
1317.298,-57.38
1317.313,-57.13
1317.328,-56.86
1317.344,-57.28
1317.359,-57.63
1317.373,-57.29
1317.388,-57.11
1317.403,-57.37
1317.418,-57.51
1317.433,-57.06
1317.448,-57.1
1317.464,-57.4
1317.479,-57.26
1317.494,-57.13
1317.509,-57.28
1317.523,-57.65
1317.538,-57.67
1317.553,-57.24
1317.568,-57.4
1317.583,-57.74
1317.599,-57.55
1317.614,-57.19
1317.629,-57.23
1317.644,-57.67
1317.658,-57.49
1317.673,-57.28
1317.688,-57.43
1317.703,-57.71
1317.719,-57.28
1317.734,-57.14
1317.749,-57.53
1317.764,-57.56
1317.779,-57.16
1317.794,-57.28
1317.808,-57.73
1317.823,-58.18
1317.839,-57.7
1317.854,-57.37
1317.869,-57.68
1317.884,-58.04
1317.899,-57.66
1317.914,-57.61
1317.929,-58.02
1317.944,-57.87
1317.958,-57.41
1317.974,-57.66
1317.989,-57.83
1318.004,-57.57
1318.019,-57.14
1318.034,-57.28
1318.049,-57.44
1318.064,-57.38
1318.079,-57.34
1318.094,-57.18
1318.109,-57.78
1318.124,-57.64
1318.139,-57.45
1318.154,-57.78
1318.169,-58.23
1318.184,-57.83
1318.199,-57.53
1318.214,-58.07
1318.229,-58.0
1318.244,-57.52
1318.259,-57.53
1318.274,-57.81
1318.289,-57.9
1318.304,-57.73
1318.319,-57.64
1318.334,-57.81
1318.349,-57.81
1318.364,-57.39
1318.379,-57.17
1318.394,-57.52
1318.409,-57.6
1318.424,-57.21
1318.439,-57.4
1318.454,-57.89
1318.469,-57.85
1318.484,-57.63
1318.499,-57.63
1318.514,-57.87
1318.529,-57.76
1318.544,-57.53
1318.559,-57.65
1318.574,-57.78
1318.589,-57.51
1318.604,-57.29
1318.619,-57.67
1318.634,-57.89
1318.649,-57.49
1318.664,-57.22
1318.679,-57.44
1318.694,-57.5
1318.709,-57.2
1318.724,-57.27
1318.739,-57.47
1318.754,-57.63
1318.769,-57.28
1318.784,-57.35
1318.799,-57.68
1318.814,-57.57
1318.829,-57.12
1318.844,-57.18
1318.859,-57.61
1318.874,-57.69
1318.889,-57.24
1318.904,-57.26
1318.919,-57.65
1318.934,-57.42
1318.949,-57.13
1318.964,-57.57
1318.979,-57.62
1318.994,-57.25
1319.009,-57.06
1319.024,-57.22
1319.039,-57.7
1319.054,-57.73
1319.069,-57.2
1319.084,-57.35
1319.099,-57.86
1319.114,-57.37
1319.129,-57.24
1319.144,-57.49
1319.159,-57.52
1319.174,-57.07
1319.189,-57.11
1319.204,-57.61
1319.219,-57.34
1319.234,-57.12
1319.249,-57.36
1319.264,-57.65
1319.279,-57.86
1319.294,-57.46
1319.309,-57.19
1319.324,-57.61
1319.339,-57.7
1319.354,-57.22
1319.369,-57.36
1319.384,-57.79
1319.399,-57.52
1319.414,-57.28
1319.429,-57.57
1319.444,-57.87
1319.459,-57.4
1319.474,-57.2
1319.489,-57.44
1319.504,-57.59
1319.519,-57.27
1319.534,-57.06
1319.549,-57.41
1319.564,-57.71
1319.579,-57.45
1319.594,-57.26
1319.609,-57.69
1319.624,-57.79
1319.639,-57.37
1319.654,-57.35
1319.669,-57.88
1319.684,-57.79
1319.699,-57.55
1319.714,-57.71
1319.729,-58.01
1319.744,-57.92
1319.759,-57.47
1319.774,-57.82
1319.789,-58.14
1319.804,-57.78
1319.819,-57.58
1319.834,-57.72
1319.849,-58.07
1319.864,-57.66
1319.879,-57.37
1319.894,-57.62
1319.909,-57.89
1319.924,-57.38
1319.939,-57.32
1319.954,-57.86
1319.969,-57.67
1319.984,-57.36
1319.999,-57.62
1320.014,-57.99
1320.029,-58.18
1320.044,-57.68
1320.059,-57.74
1320.074,-58.17
1320.089,-58.0
1320.104,-57.55
1320.119,-57.5
1320.134,-57.92
1320.149,-57.78
1320.164,-57.46
1320.179,-57.66
1320.194,-58.09
1320.209,-57.57
1320.224,-57.39
1320.239,-57.82
1320.254,-57.7
1320.269,-57.39
1320.284,-57.18
1320.299,-57.53
1320.314,-57.63
1320.329,-57.4
1320.344,-57.5
1320.359,-57.89
1320.374,-57.7
1320.389,-57.4
1320.404,-57.23
1320.419,-57.58
1320.434,-57.52
1320.449,-57.2
1320.464,-57.26
1320.479,-57.61
1320.494,-57.33
1320.509,-57.09
1320.524,-57.5
1320.539,-57.75
1320.554,-57.39
1320.569,-57.15
1320.584,-57.39
1320.599,-57.49
1320.614,-57.3
1320.629,-57.16
1320.644,-57.46
1320.659,-57.55
1320.674,-57.28
1320.689,-57.39
1320.704,-57.52
1320.719,-57.54
1320.734,-57.14
1320.749,-57.25
1320.764,-57.65
1320.779,-57.31
1320.794,-56.95
1320.809,-57.22
1320.824,-57.28
1320.839,-57.23
1320.854,-56.93
1320.869,-57.2
1320.884,-57.31
1320.899,-57.23
1320.914,-57.08
1320.929,-57.36
1320.944,-57.32
1320.959,-57.13
1320.974,-57.27
1320.989,-57.46
1321.004,-57.26
1321.019,-57.15
1321.034,-57.35
1321.049,-57.35
1321.064,-57.15
1321.079,-57.16
1321.094,-57.31
1321.109,-57.52
1321.124,-57.47
1321.139,-57.13
1321.154,-57.31
1321.169,-57.46
1321.184,-57.4
1321.199,-57.15
1321.214,-57.47
1321.229,-57.54
1321.244,-57.23
1321.259,-57.33
1321.274,-57.64
1321.289,-57.53
1321.304,-57.2
1321.319,-57.55
1321.334,-57.58
1321.349,-57.3
1321.364,-57.27
1321.379,-57.57
1321.394,-57.43
1321.409,-57.59
1321.424,-57.66
1321.439,-57.72
1321.454,-57.55
1321.469,-57.55
1321.484,-57.3
1321.499,-57.5
1321.514,-57.56
1321.529,-57.22
1321.544,-57.21
1321.559,-57.52
1321.574,-57.48
1321.589,-57.18
1321.604,-57.42
1321.619,-57.51
1321.634,-57.37
1321.649,-57.25
1321.664,-57.67
1321.679,-57.54
1321.694,-57.24
1321.709,-57.54
1321.724,-57.6
1321.739,-57.55
1321.754,-57.44
1321.769,-57.28
1321.784,-57.51
1321.799,-57.59
1321.814,-57.26
1321.829,-57.3
1321.844,-57.66
1321.859,-57.65
1321.874,-57.33
1321.889,-57.49
1321.904,-57.63
1321.919,-57.39
1321.934,-57.24
1321.949,-57.71
1321.964,-57.57
1321.979,-57.16
1321.994,-57.23
1322.009,-57.52
1322.024,-57.41
1322.039,-57.01
1322.054,-57.05
1322.069,-57.54
1322.084,-57.3
1322.099,-57.03
1322.114,-56.86
1322.129,-57.24
1322.144,-57.21
1322.159,-57.09
1322.174,-57.26
1322.189,-57.32
1322.204,-57.18
1322.219,-57.07
1322.234,-57.35
1322.249,-57.47
1322.264,-57.24
1322.279,-57.35
1322.294,-57.34
1322.309,-57.65
1322.324,-57.13
1322.339,-57.07
1322.354,-57.5
1322.369,-57.33
1322.384,-56.92
1322.399,-57.07
1322.414,-57.37
1322.429,-57.01
1322.444,-56.85
1322.459,-57.2
1322.474,-57.34
1322.489,-57.24
1322.504,-57.07
1322.519,-57.25
1322.534,-57.52
1322.549,-57.26
1322.564,-57.23
1322.579,-57.44
1322.594,-57.36
1322.609,-56.95
1322.624,-56.8
1322.639,-57.14
1322.654,-57.17
1322.669,-56.64
1322.684,-56.76
1322.699,-57.18
1322.714,-56.78
1322.729,-56.46
1322.744,-56.75
1322.759,-56.98
1322.774,-56.8
1322.789,-56.64
1322.804,-56.79
1322.819,-56.97
1322.834,-56.87
1322.849,-56.8
1322.864,-57.07
1322.879,-56.99
1322.894,-56.94
1322.909,-57.1
1322.924,-57.29
1322.939,-57.08
1322.954,-56.84
1322.969,-57.09
1322.984,-57.04
1322.999,-56.9
1323.014,-56.57
1323.029,-56.86
1323.044,-56.96
1323.059,-56.82
1323.074,-56.67
1323.089,-56.89
1323.104,-56.91
1323.119,-56.83
1323.134,-56.82
1323.149,-56.99
1323.164,-56.97
1323.179,-56.73
1323.194,-56.91
1323.209,-57.03
1323.224,-56.87
1323.239,-56.68
1323.254,-56.83
1323.269,-56.8
1323.284,-56.43
1323.299,-56.69
1323.314,-56.57
1323.329,-56.48
1323.344,-56.56
1323.359,-56.59
1323.374,-56.71
1323.389,-56.82
1323.404,-56.7
1323.419,-56.69
1323.434,-56.98
1323.449,-57.0
1323.464,-56.74
1323.479,-56.9
1323.494,-57.08
1323.509,-56.95
1323.524,-56.86
1323.539,-57.0
1323.554,-57.03
1323.569,-56.85
1323.584,-56.75
1323.599,-56.98
1323.614,-56.95
1323.629,-57.12
1323.644,-57.23
1323.659,-57.03
1323.674,-57.07
1323.689,-57.2
1323.704,-57.1
1323.719,-57.03
1323.734,-57.16
1323.749,-56.93
1323.764,-56.98
1323.779,-57.44
1323.794,-57.34
1323.809,-57.0
1323.824,-57.17
1323.839,-57.34
1323.854,-57.02
1323.869,-56.85
1323.884,-57.18
1323.899,-57.0
1323.914,-56.68
1323.929,-56.77
1323.944,-56.96
1323.959,-56.9
1323.974,-56.72
1323.989,-57.1
1324.004,-57.04
1324.019,-57.19
1324.034,-57.13
1324.049,-57.24
1324.064,-57.33
1324.079,-57.34
1324.094,-57.18
1324.109,-57.23
1324.124,-57.36
1324.139,-57.07
1324.154,-56.91
1324.169,-57.19
1324.184,-57.32
1324.199,-56.92
1324.214,-57.0
1324.229,-57.37
1324.244,-57.21
1324.259,-56.88
1324.274,-57.26
1324.289,-57.48
1324.304,-57.13
1324.319,-57.16
1324.334,-57.56
1324.349,-57.47
1324.364,-57.24
1324.379,-57.21
1324.394,-57.23
1324.409,-57.2
1324.424,-57.1
1324.439,-57.15
1324.454,-57.1
1324.469,-57.07
1324.484,-57.05
1324.499,-57.15
1324.514,-57.36
1324.529,-57.31
1324.544,-56.93
1324.559,-57.28
1324.574,-57.36
1324.589,-57.21
1324.604,-57.1
1324.619,-57.5
1324.634,-57.47
1324.649,-57.09
1324.664,-57.2
1324.679,-57.52
1324.694,-57.4
1324.709,-57.22
1324.724,-57.59
1324.739,-57.64
1324.754,-57.62
1324.769,-57.5
1324.784,-57.31
1324.799,-57.25
1324.814,-57.34
1324.829,-57.41
1324.844,-57.28
1324.859,-57.39
1324.874,-57.47
1324.889,-57.17
1324.904,-57.54
1324.919,-57.7
1324.934,-57.35
1324.949,-57.41
1324.964,-57.81
1324.979,-57.61
1324.994,-57.28
1325.009,-57.7
1325.024,-57.79
1325.039,-57.55
1325.054,-57.23
1325.069,-57.62
1325.084,-57.6
1325.099,-57.37
1325.114,-57.55
1325.129,-57.75
1325.144,-57.64
1325.159,-57.81
1325.174,-58.03
1325.189,-57.75
1325.204,-57.76
1325.219,-57.83
1325.234,-57.73
1325.25,-57.75
1325.264,-57.85
1325.279,-57.51
1325.294,-57.74
1325.309,-57.98
1325.324,-57.7
1325.339,-57.46
1325.354,-57.95
1325.37,-57.85
1325.385,-57.59
1325.4,-57.58
1325.414,-57.88
1325.429,-57.88
1325.444,-57.55
1325.459,-57.85
1325.474,-58.05
1325.49,-57.75
1325.505,-57.67
1325.52,-57.8
1325.535,-57.57
1325.549,-57.78
1325.564,-57.86
1325.579,-57.79
1325.594,-57.73
1325.609,-57.83
1325.625,-57.79
1325.64,-57.73
1325.655,-57.7
1325.67,-57.83
1325.685,-57.69
1325.699,-57.58
1325.714,-57.57
1325.729,-57.09
1325.745,-57.2
1325.76,-57.42
1325.775,-57.29
1325.79,-57.28
1325.805,-57.58
1325.82,-57.59
1325.834,-57.33
1325.849,-57.51
1325.865,-57.74
1325.88,-57.51
1325.895,-57.57
1325.91,-57.69
1325.925,-57.55
1325.94,-57.58
1325.955,-57.67
1325.97,-57.5
1325.984,-57.41
1326.0,-57.48
1326.015,-57.37
1326.03,-57.21
1326.045,-57.2
1326.06,-57.43
1326.075,-57.35
1326.09,-57.19
1326.105,-57.13
1326.12,-57.17
1326.135,-57.01
1326.15,-56.97
1326.165,-57.07
1326.18,-56.96
1326.195,-56.81
1326.21,-56.98
1326.225,-57.12
1326.24,-57.0
1326.255,-56.95
1326.27,-56.93
1326.285,-57.42
1326.3,-57.09
1326.315,-56.82
1326.33,-57.0
1326.345,-57.09
1326.36,-57.02
1326.375,-56.99
1326.39,-57.07
1326.405,-57.14
1326.42,-57.09
1326.435,-56.96
1326.45,-57.14
1326.465,-57.14
1326.48,-57.03
1326.495,-57.1
1326.51,-57.14
1326.525,-57.08
1326.54,-57.01
1326.555,-56.99
1326.57,-56.95
1326.585,-56.96
1326.6,-56.94
1326.615,-57.0
1326.63,-57.03
1326.645,-56.82
1326.66,-56.91
1326.675,-57.11
1326.69,-56.92
1326.705,-56.9
1326.72,-56.96
1326.735,-57.44
1326.75,-57.23
1326.765,-56.98
1326.78,-57.35
1326.795,-57.48
1326.81,-57.06
1326.825,-57.15
1326.84,-57.69
1326.855,-57.42
1326.87,-57.11
1326.885,-57.34
1326.9,-57.56
1326.915,-57.11
1326.93,-57.06
1326.945,-57.37
1326.96,-57.47
1326.975,-57.26
1326.99,-57.17
1327.005,-57.47
1327.02,-57.52
1327.035,-57.32
1327.05,-57.53
1327.065,-57.63
1327.08,-57.63
1327.095,-57.54
1327.11,-57.76
1327.125,-57.95
1327.14,-57.77
1327.155,-57.77
1327.17,-58.09
1327.185,-58.03
1327.2,-57.92
1327.215,-58.0
1327.23,-58.07
1327.245,-57.98
1327.26,-57.75
1327.275,-58.01
1327.29,-57.99
1327.305,-57.76
1327.32,-57.85
1327.335,-58.05
1327.35,-58.36
1327.365,-57.74
1327.38,-57.79
1327.395,-58.28
1327.41,-58.07
1327.425,-57.73
1327.44,-58.17
1327.455,-58.46
1327.47,-57.99
1327.485,-57.92
1327.5,-58.5
1327.515,-58.58
1327.53,-58.06
1327.545,-58.25
1327.56,-58.76
1327.575,-58.81
1327.59,-58.29
1327.605,-58.39
1327.62,-58.74
1327.635,-58.35
1327.65,-58.24
1327.665,-58.55
1327.68,-58.61
1327.695,-58.39
1327.71,-58.48
1327.725,-58.79
1327.74,-58.7
1327.755,-58.48
1327.77,-58.69
1327.785,-58.85
1327.8,-58.54
1327.815,-58.48
1327.83,-58.69
1327.845,-58.46
1327.86,-58.18
1327.875,-58.25
1327.89,-58.44
1327.905,-58.23
1327.92,-58.15
1327.935,-58.33
1327.95,-58.51
1327.965,-58.24
1327.98,-57.85
1327.995,-58.33
1328.01,-58.46
1328.025,-57.88
1328.04,-57.9
1328.055,-58.37
1328.07,-58.24
1328.085,-57.76
1328.1,-57.97
1328.115,-58.3
1328.13,-57.77
1328.145,-57.61
1328.16,-58.05
1328.175,-57.85
1328.19,-57.63
1328.205,-57.52
1328.22,-57.54
1328.235,-57.71
1328.25,-57.42
1328.265,-57.44
1328.28,-57.72
1328.295,-57.57
1328.31,-57.43
1328.325,-57.59
1328.34,-57.82
1328.355,-57.46
1328.37,-57.46
1328.385,-57.76
1328.4,-57.76
1328.415,-57.58
1328.43,-57.74
1328.445,-57.97
1328.46,-57.73
1328.475,-57.51
1328.49,-57.69
1328.505,-57.67
1328.52,-57.4
1328.535,-57.4
1328.55,-57.63
1328.565,-57.6
1328.58,-57.09
1328.595,-57.18
1328.61,-57.56
1328.625,-57.45
1328.64,-57.11
1328.655,-57.49
1328.67,-57.89
1328.685,-57.39
1328.7,-57.31
1328.715,-57.75
1328.73,-57.68
1328.745,-57.26
1328.76,-57.41
1328.775,-57.69
1328.79,-57.43
1328.805,-57.32
1328.82,-57.22
1328.835,-57.33
1328.85,-57.24
1328.865,-57.13
1328.88,-57.29
1328.895,-57.5
1328.91,-57.44
1328.925,-57.39
1328.94,-57.58
1328.955,-57.55
1328.97,-57.43
1328.985,-57.54
1329.0,-57.68
1329.015,-57.6
1329.03,-57.54
1329.045,-57.75
1329.06,-57.73
1329.075,-57.56
1329.09,-57.55
1329.105,-57.72
1329.12,-57.66
1329.135,-57.65
1329.15,-57.77
1329.165,-57.8
1329.18,-57.83
1329.195,-57.51
1329.21,-57.76
1329.225,-58.27
1329.24,-57.72
1329.255,-57.63
1329.27,-58.23
1329.285,-58.24
1329.3,-57.83
1329.315,-57.99
1329.33,-58.36
1329.345,-57.93
1329.36,-57.73
1329.375,-58.07
1329.39,-58.23
1329.405,-57.93
1329.42,-57.79
1329.435,-57.81
1329.45,-57.81
1329.465,-57.61
1329.48,-57.68
1329.495,-57.93
1329.51,-57.87
1329.525,-57.62
1329.54,-57.63
1329.555,-57.74
1329.57,-57.66
1329.585,-57.72
1329.6,-57.93
1329.615,-58.01
1329.63,-57.76
1329.645,-57.85
1329.66,-57.79
1329.675,-57.67
1329.69,-57.49
1329.705,-57.56
1329.72,-57.62
1329.735,-57.47
1329.75,-57.43
1329.765,-57.48
1329.78,-57.55
1329.795,-57.37
1329.81,-57.33
1329.825,-57.91
1329.84,-57.97
1329.855,-57.6
1329.87,-57.7
1329.885,-58.25
1329.9,-57.73
1329.915,-57.51
1329.93,-57.94
1329.945,-58.05
1329.96,-57.55
1329.975,-57.49
1329.99,-58.0
1330.005,-57.74
1330.02,-57.4
1330.035,-57.61
1330.05,-57.96
1330.065,-57.51
1330.08,-57.35
1330.095,-57.83
1330.11,-57.76
1330.125,-57.41
1330.14,-57.62
1330.155,-58.01
1330.17,-57.7
1330.185,-57.5
1330.2,-57.93
1330.215,-58.12
1330.23,-57.58
1330.245,-57.62
1330.26,-58.16
1330.275,-57.86
1330.29,-57.4
1330.305,-57.53
1330.32,-57.75
1330.335,-57.42
1330.35,-57.25
1330.365,-57.67
1330.38,-57.67
1330.395,-57.31
1330.41,-57.27
1330.425,-57.72
1330.44,-57.69
1330.455,-57.37
1330.47,-57.42
1330.485,-57.8
1330.5,-57.59
1330.515,-57.25
1330.53,-57.64
1330.545,-57.85
1330.56,-57.47
1330.575,-57.34
1330.59,-57.64
1330.605,-57.5
1330.62,-57.08
1330.635,-56.94
1330.65,-57.27
1330.665,-57.41
1330.68,-56.99
1330.695,-57.14
1330.71,-57.69
1330.725,-57.36
1330.74,-57.17
1330.755,-57.41
1330.77,-57.68
1330.785,-57.23
1330.8,-57.29
1330.815,-57.64
1330.83,-57.43
1330.845,-57.06
1330.86,-57.22
1330.875,-57.65
1330.89,-57.21
1330.905,-57.1
1330.92,-57.37
1330.935,-57.29
1330.95,-56.96
1330.965,-57.03
1330.98,-57.37
1330.995,-57.03
1331.01,-56.91
1331.025,-57.12
1331.04,-57.32
1331.055,-56.95
1331.07,-56.94
1331.085,-57.38
1331.1,-57.25
1331.115,-57.04
1331.13,-57.33
1331.145,-57.57
1331.16,-57.19
1331.175,-57.03
1331.19,-57.42
1331.205,-57.45
1331.22,-56.95
1331.235,-57.05
1331.25,-57.12
1331.265,-57.08
1331.28,-56.94
1331.295,-57.04
1331.31,-57.13
1331.325,-57.18
1331.34,-56.96
1331.355,-57.1
1331.37,-57.17
1331.385,-57.1
1331.4,-57.13
1331.415,-57.19
1331.43,-57.06
1331.445,-57.0
1331.46,-57.01
1331.475,-57.2
1331.49,-57.18
1331.505,-57.01
1331.52,-57.15
1331.535,-57.13
1331.55,-57.1
1331.565,-57.11
1331.58,-57.04
1331.595,-57.09
1331.61,-57.25
1331.625,-57.24
1331.64,-57.51
1331.655,-57.59
1331.67,-57.26
1331.685,-57.36
1331.7,-57.74
1331.715,-57.56
1331.73,-57.35
1331.745,-57.5
1331.76,-57.79
1331.775,-57.47
1331.79,-57.43
1331.805,-57.73
1331.82,-57.76
1331.835,-57.34
1331.85,-57.47
1331.865,-57.88
1331.88,-57.54
1331.895,-57.39
1331.91,-57.73
1331.925,-57.92
1331.94,-57.49
1331.955,-57.43
1331.97,-57.95
1331.985,-57.73
1332.0,-57.55
1332.015,-57.74
1332.03,-58.04
1332.045,-57.69
1332.06,-57.68
1332.075,-57.96
1332.09,-58.03
1332.105,-57.66
1332.12,-57.66
1332.135,-57.81
1332.15,-57.52
1332.165,-57.38
1332.18,-57.68
1332.195,-57.74
1332.21,-57.31
1332.225,-57.42
1332.24,-57.52
1332.255,-57.91
1332.27,-57.49
1332.285,-57.41
1332.3,-57.96
1332.315,-58.02
1332.33,-57.53
1332.345,-57.64
1332.36,-58.24
1332.375,-57.79
1332.39,-57.51
1332.405,-57.52
1332.42,-57.7
1332.435,-57.53
1332.45,-57.42
1332.465,-57.59
1332.48,-57.8
1332.495,-57.34
1332.51,-57.43
1332.525,-57.58
1332.54,-57.6
1332.555,-57.27
1332.57,-57.37
1332.585,-57.98
1332.6,-57.61
1332.615,-57.28
1332.63,-57.42
1332.645,-57.79
1332.66,-57.46
1332.675,-57.49
1332.69,-57.81
1332.705,-57.75
1332.72,-57.26
1332.735,-57.35
1332.75,-57.75
1332.765,-57.33
1332.78,-57.24
1332.795,-57.51
1332.81,-57.59
1332.825,-57.13
1332.84,-57.17
1332.855,-57.64
1332.87,-57.26
1332.885,-57.06
1332.9,-57.32
1332.915,-57.52
1332.93,-57.06
1332.945,-57.12
1332.96,-57.79
1332.975,-57.51
1332.99,-57.2
1333.005,-57.4
1333.02,-57.71
1333.035,-57.27
1333.05,-57.22
1333.065,-57.61
1333.08,-57.53
1333.095,-57.1
1333.11,-57.15
1333.125,-57.71
1333.141,-57.45
1333.155,-57.23
1333.17,-57.57
1333.185,-57.74
1333.2,-57.27
1333.215,-57.31
1333.23,-57.68
1333.245,-57.76
1333.26,-57.28
1333.276,-57.44
1333.29,-57.93
1333.305,-57.38
1333.32,-57.14
1333.335,-57.47
1333.35,-57.64
1333.365,-57.15
1333.38,-57.21
1333.396,-57.69
1333.411,-57.72
1333.426,-57.55
1333.44,-57.51
1333.455,-57.78
1333.47,-57.82
1333.485,-57.38
1333.5,-57.67
1333.516,-57.81
1333.531,-57.65
1333.546,-57.49
1333.561,-57.97
1333.575,-58.02
1333.59,-57.45
1333.605,-57.63
1333.62,-57.9
1333.635,-57.81
1333.651,-57.51
1333.666,-57.83
1333.681,-57.71
1333.696,-57.47
1333.711,-57.33
1333.725,-57.74
1333.74,-57.72
1333.755,-57.34
1333.771,-57.68
1333.786,-57.73
1333.801,-57.5
1333.816,-57.43
1333.831,-57.85
1333.846,-57.91
1333.86,-57.52
1333.875,-57.73
1333.891,-57.98
1333.906,-57.86
1333.921,-57.58
1333.936,-57.8
1333.951,-57.9
1333.966,-57.48
1333.981,-57.69
1333.996,-57.76
1334.01,-57.68
1334.026,-57.55
1334.041,-57.76
1334.056,-57.74
1334.071,-57.44
1334.086,-57.69
1334.101,-57.81
1334.116,-57.68
1334.131,-57.41
1334.146,-57.73
1334.161,-57.88
1334.176,-57.66
1334.191,-57.67
1334.206,-57.94
1334.221,-57.78
1334.236,-57.63
1334.251,-57.69
1334.266,-57.74
1334.281,-57.63
1334.296,-57.45
1334.311,-57.69
1334.326,-57.73
1334.341,-57.49
1334.356,-57.68
1334.371,-57.75
1334.386,-57.66
1334.401,-57.4
1334.416,-57.81
1334.431,-57.64
1334.446,-57.42
1334.461,-57.52
1334.476,-57.72
1334.491,-57.75
1334.506,-57.4
1334.521,-57.61
1334.536,-57.67
1334.551,-57.51
1334.566,-57.25
1334.581,-57.37
1334.596,-57.38
1334.611,-57.29
1334.626,-57.38
1334.641,-57.51
1334.656,-57.51
1334.671,-57.2
1334.686,-57.6
1334.701,-57.62
1334.716,-57.51
1334.731,-57.43
1334.746,-57.58
1334.761,-57.56
1334.776,-57.37
1334.791,-57.4
1334.806,-57.48
1334.821,-57.36
1334.836,-57.15
1334.851,-57.4
1334.866,-57.39
1334.881,-57.25
1334.896,-57.36
1334.911,-57.35
1334.926,-57.14
1334.941,-57.13
1334.956,-57.42
1334.971,-57.34
1334.986,-57.01
1335.001,-57.11
1335.016,-57.35
1335.031,-57.14
1335.046,-56.91
1335.061,-57.37
1335.076,-57.42
1335.091,-56.99
1335.106,-57.14
1335.121,-57.55
1335.136,-57.39
1335.151,-57.08
1335.166,-57.28
1335.181,-57.35
1335.196,-56.98
1335.211,-56.89
1335.226,-57.26
1335.241,-57.14
1335.256,-56.91
1335.271,-57.1
1335.286,-57.44
1335.301,-57.22
1335.316,-57.05
1335.331,-57.43
1335.346,-57.44
1335.361,-57.11
1335.376,-57.23
1335.391,-57.56
1335.406,-57.4
1335.421,-57.24
1335.436,-57.36
1335.451,-57.37
1335.466,-57.31
1335.481,-57.29
1335.496,-57.2
1335.511,-57.32
1335.526,-57.32
1335.541,-57.33
1335.556,-57.31
1335.571,-57.46
1335.586,-57.49
1335.601,-57.54
1335.616,-57.56
1335.631,-57.64
1335.646,-57.55
1335.661,-57.49
1335.676,-57.62
1335.691,-57.49
1335.706,-57.42
1335.721,-57.54
1335.736,-57.62
1335.751,-57.43
1335.766,-57.42
1335.781,-57.42
1335.796,-57.6
1335.811,-57.46
1335.826,-57.42
1335.841,-57.63
1335.856,-57.52
1335.871,-57.38
1335.886,-57.4
1335.901,-57.49
1335.916,-57.43
1335.931,-57.57
1335.946,-57.72
1335.961,-57.64
1335.976,-57.65
1335.991,-57.7
1336.006,-57.84
1336.021,-57.77
1336.036,-57.69
1336.051,-57.91
1336.066,-57.73
1336.081,-57.54
1336.096,-57.66
1336.111,-57.73
1336.126,-57.62
1336.141,-57.57
1336.156,-57.69
1336.171,-57.7
1336.186,-57.66
1336.201,-57.67
1336.216,-57.79
1336.231,-57.74
1336.246,-57.67
1336.261,-57.68
1336.276,-57.92
1336.291,-57.82
1336.306,-57.71
1336.321,-57.81
1336.336,-57.8
1336.351,-57.74
1336.366,-57.62
1336.381,-57.7
1336.396,-57.54
1336.411,-57.53
1336.426,-57.33
1336.441,-57.47
1336.456,-57.67
1336.471,-57.42
1336.486,-57.36
1336.501,-57.63
1336.516,-57.61
1336.531,-57.34
1336.546,-57.56
1336.561,-57.81
1336.576,-57.55
1336.591,-57.33
1336.606,-57.74
1336.621,-57.68
1336.636,-57.35
1336.651,-57.39
1336.666,-57.65
1336.681,-57.39
1336.696,-57.14
1336.711,-57.41
1336.726,-57.37
1336.741,-57.02
1336.756,-57.04
1336.771,-57.27
1336.786,-57.2
1336.801,-56.91
1336.816,-57.2
1336.831,-57.44
1336.846,-57.06
1336.861,-56.96
1336.876,-57.5
1336.891,-57.59
1336.906,-57.16
1336.921,-57.25
1336.936,-57.51
1336.951,-57.33
1336.966,-57.03
1336.981,-57.31
1336.996,-57.43
1337.011,-57.08
1337.026,-56.96
1337.041,-57.3
1337.056,-57.16
1337.071,-56.81
1337.086,-57.15
1337.101,-57.39
1337.116,-57.06
1337.131,-56.82
1337.146,-57.28
1337.161,-57.25
1337.176,-56.94
1337.191,-56.97
1337.206,-57.36
1337.221,-57.22
1337.236,-56.97
1337.251,-57.34
1337.266,-57.54
1337.281,-57.17
1337.296,-57.03
1337.311,-57.43
1337.326,-57.35
1337.341,-56.92
1337.356,-57.11
1337.371,-57.45
1337.386,-57.22
1337.401,-57.11
1337.416,-57.62
1337.431,-57.63
1337.446,-57.24
1337.461,-57.33
1337.476,-57.77
1337.491,-57.56
1337.506,-57.32
1337.521,-57.64
1337.536,-57.81
1337.551,-57.33
1337.566,-57.25
1337.581,-57.57
1337.596,-57.5
1337.611,-56.93
1337.626,-57.15
1337.641,-57.41
1337.656,-57.28
1337.671,-57.07
1337.686,-57.56
1337.701,-57.72
1337.716,-57.31
1337.731,-57.4
1337.746,-57.86
1337.761,-57.7
1337.776,-57.43
1337.791,-57.73
1337.806,-57.96
1337.821,-57.51
1337.836,-57.4
1337.851,-58.04
1337.866,-58.01
1337.881,-57.41
1337.896,-57.42
1337.911,-57.79
1337.926,-57.5
1337.941,-57.26
1337.956,-57.62
1337.971,-57.72
1337.986,-57.29
1338.001,-57.27
1338.016,-57.65
1338.031,-57.63
1338.046,-57.15
1338.061,-57.42
1338.076,-57.73
1338.091,-57.35
1338.106,-57.37
1338.121,-57.67
1338.136,-57.59
1338.151,-57.52
1338.166,-57.5
1338.181,-57.45
1338.196,-57.6
1338.211,-57.43
1338.226,-57.25
1338.241,-57.34
1338.256,-57.27
1338.271,-57.13
1338.286,-57.14
1338.301,-57.2
1338.316,-57.16
1338.331,-56.96
1338.346,-57.2
1338.361,-57.2
1338.376,-57.1
1338.391,-57.04
1338.406,-57.23
1338.421,-57.28
1338.436,-57.14
1338.451,-57.22
1338.466,-57.34
1338.481,-57.32
1338.496,-57.18
1338.511,-57.23
1338.526,-57.29
1338.541,-57.13
1338.556,-56.99
1338.571,-57.16
1338.586,-57.16
1338.601,-56.96
1338.616,-57.12
1338.631,-57.33
1338.646,-57.28
1338.661,-57.06
1338.676,-57.22
1338.691,-57.22
1338.706,-56.97
1338.721,-57.07
1338.736,-57.28
1338.751,-57.24
1338.766,-57.11
1338.781,-57.29
1338.796,-57.44
1338.811,-57.13
1338.826,-57.15
1338.841,-57.26
1338.856,-57.17
1338.871,-56.95
1338.886,-57.08
1338.901,-57.38
1338.916,-57.16
1338.931,-57.14
1338.946,-57.36
1338.961,-57.49
1338.976,-57.19
1338.991,-57.29
1339.006,-57.56
1339.021,-57.45
1339.036,-57.3
1339.051,-57.53
1339.066,-57.77
1339.081,-57.57
1339.096,-57.58
1339.111,-57.48
1339.126,-57.43
1339.141,-57.61
1339.156,-57.63
1339.171,-57.38
1339.186,-57.5
1339.201,-57.74
1339.216,-57.58
1339.231,-57.54
1339.246,-57.7
1339.261,-57.79
1339.276,-57.56
1339.291,-57.6
1339.306,-57.87
1339.321,-57.68
1339.336,-57.66
1339.351,-57.67
1339.366,-57.89
1339.381,-57.52
1339.396,-57.55
1339.411,-57.79
1339.426,-57.5
1339.441,-57.34
1339.456,-57.39
1339.471,-57.59
1339.486,-57.29
1339.501,-57.34
1339.516,-57.63
1339.531,-57.61
1339.546,-57.31
1339.561,-57.63
1339.576,-57.81
1339.591,-57.59
1339.606,-57.54
1339.621,-57.71
1339.636,-57.81
1339.651,-57.41
1339.666,-57.52
1339.681,-57.77
1339.696,-57.67
1339.711,-57.49
1339.726,-57.57
1339.741,-57.71
1339.756,-57.41
1339.771,-57.45
1339.786,-57.58
1339.801,-57.56
1339.816,-57.4
1339.831,-57.44
1339.846,-57.85
1339.861,-57.5
1339.876,-57.73
1339.891,-58.03
1339.906,-57.65
1339.921,-57.48
1339.936,-58.03
1339.951,-58.14
1339.966,-57.49
1339.981,-57.56
1339.996,-57.95
1340.011,-57.61
1340.026,-57.25
1340.041,-57.4
1340.056,-57.82
1340.071,-57.3
1340.086,-57.23
1340.101,-57.65
1340.116,-57.58
1340.131,-57.26
1340.146,-57.39
1340.161,-57.4
1340.176,-57.31
1340.191,-57.41
1340.206,-57.36
1340.221,-57.27
1340.236,-57.31
1340.251,-57.42
1340.266,-57.45
1340.281,-57.42
1340.296,-57.41
1340.311,-57.58
1340.326,-57.46
1340.341,-57.3
1340.356,-57.47
1340.371,-57.37
1340.386,-57.37
1340.401,-57.43
1340.416,-57.51
1340.431,-57.45
1340.446,-57.31
1340.461,-57.42
1340.476,-57.43
1340.491,-57.37
1340.506,-57.36
1340.521,-57.49
1340.536,-57.31
1340.551,-57.31
1340.566,-57.62
1340.581,-57.41
1340.596,-57.14
1340.611,-57.37
1340.626,-57.72
1340.641,-57.27
1340.656,-57.21
1340.671,-57.51
1340.686,-57.45
1340.701,-57.08
1340.716,-57.3
1340.731,-57.78
1340.746,-57.37
1340.761,-57.08
1340.776,-57.42
1340.791,-57.62
1340.806,-57.26
1340.821,-57.22
1340.836,-57.62
1340.851,-57.28
1340.866,-57.23
1340.881,-57.28
1340.896,-57.27
1340.911,-57.12
1340.926,-57.19
1340.941,-57.05
1340.956,-57.01
1340.971,-56.99
1340.986,-57.37
1341.001,-57.01
1341.016,-56.9
1341.031,-57.28
1341.046,-57.35
1341.061,-56.9
1341.076,-56.97
1341.091,-57.42
1341.106,-56.97
1341.121,-56.96
1341.136,-57.19
1341.151,-57.43
1341.167,-57.03
1341.181,-57.11
1341.196,-57.56
1341.211,-57.31
1341.226,-56.98
1341.241,-57.14
1341.256,-57.41
1341.271,-56.93
1341.286,-56.84
1341.302,-57.29
1341.316,-57.21
1341.331,-56.82
1341.346,-57.14
1341.361,-57.47
1341.376,-57.13
1341.391,-57.06
1341.406,-57.42
1341.422,-57.15
1341.437,-56.96
1341.452,-57.44
1341.466,-57.49
1341.481,-57.26
1341.496,-57.29
1341.511,-57.65
1341.526,-57.36
1341.542,-57.1
1341.557,-57.46
1341.572,-57.26
1341.587,-57.03
1341.601,-57.27
1341.616,-57.63
1341.631,-57.23
1341.646,-57.2
1341.661,-57.59
1341.677,-57.69
1341.692,-57.32
1341.707,-57.42
1341.722,-57.79
1341.737,-57.41
1341.751,-57.36
1341.766,-57.83
1341.781,-57.97
1341.797,-57.48
1341.812,-57.38
1341.827,-57.86
1341.842,-57.6
1341.857,-57.36
1341.872,-57.61
1341.887,-57.77
1341.901,-57.34
1341.917,-57.35
1341.932,-57.79
1341.947,-57.63
1341.962,-57.28
1341.977,-57.62
1341.992,-57.56
1342.007,-57.45
1342.022,-57.67
1342.036,-57.76
1342.052,-57.8
1342.067,-57.82
1342.082,-58.37
1342.097,-57.85
1342.112,-57.78
1342.127,-58.21
1342.142,-58.26
1342.157,-57.83
1342.172,-57.81
1342.187,-58.14
1342.202,-57.69
1342.217,-57.46
1342.232,-57.85
1342.247,-58.1
1342.262,-57.56
1342.277,-57.61
1342.292,-58.17
1342.307,-57.93
1342.322,-57.53
1342.337,-57.9
1342.352,-58.17
1342.367,-57.8
1342.382,-57.7
1342.397,-58.05
1342.412,-58.06
1342.427,-58.01
1342.442,-58.08
1342.457,-57.96
1342.472,-57.88
1342.487,-57.9
1342.502,-58.03
1342.517,-57.93
1342.532,-57.8
1342.547,-57.91
1342.562,-57.86
1342.577,-57.91
1342.592,-57.82
1342.607,-58.01
1342.622,-57.93
1342.637,-57.84
1342.652,-57.89
1342.667,-57.96
1342.682,-57.45
1342.697,-57.75
1342.712,-58.24
1342.727,-57.7
1342.742,-57.47
1342.757,-57.79
1342.772,-57.76
1342.787,-57.13
1342.802,-57.27
1342.817,-57.83
1342.832,-57.45
1342.847,-57.27
1342.862,-57.71
1342.877,-57.74
1342.892,-57.37
1342.907,-57.43
1342.922,-57.96
1342.937,-57.65
1342.952,-57.45
1342.967,-57.78
1342.982,-58.06
1342.997,-57.67
1343.012,-57.51
1343.027,-57.77
1343.042,-57.81
1343.057,-57.35
1343.072,-57.46
1343.087,-57.43
1343.102,-57.16
1343.117,-57.43
1343.132,-57.5
1343.147,-57.13
1343.162,-57.25
1343.177,-57.63
1343.192,-57.37
1343.207,-57.24
1343.222,-57.49
1343.237,-57.72
1343.252,-57.27
1343.267,-57.35
1343.282,-57.66
1343.297,-57.45
1343.312,-57.23
1343.327,-57.43
1343.342,-57.61
1343.357,-57.26
1343.372,-57.14
1343.387,-57.47
1343.402,-57.55
1343.417,-57.05
1343.432,-57.1
1343.447,-57.41
1343.462,-57.21
1343.477,-57.1
1343.492,-57.15
1343.507,-57.3
1343.522,-56.97
1343.537,-57.28
1343.552,-57.47
1343.567,-57.23
1343.582,-56.96
1343.597,-57.52
1343.612,-57.41
1343.627,-56.91
1343.642,-57.08
1343.657,-57.34
1343.672,-57.03
1343.687,-57.15
1343.702,-57.38
1343.717,-57.03
1343.732,-56.92
1343.747,-57.09
1343.762,-57.12
1343.777,-56.85
1343.792,-56.96
1343.807,-57.33
1343.822,-57.05
1343.837,-56.94
1343.852,-57.12
1343.867,-57.25
1343.882,-57.11
1343.897,-57.05
1343.912,-57.4
1343.927,-57.23
1343.942,-57.09
1343.957,-57.45
1343.972,-57.29
1343.987,-56.79
1344.002,-56.9
1344.017,-57.3
1344.032,-57.06
1344.047,-56.86
1344.062,-57.19
1344.077,-57.29
1344.092,-56.87
1344.107,-57.13
1344.122,-57.48
1344.137,-56.96
1344.152,-56.94
1344.167,-57.26
1344.182,-57.15
1344.197,-56.93
1344.212,-57.06
1344.227,-57.36
1344.242,-56.96
1344.257,-56.93
1344.272,-57.12
1344.287,-57.22
1344.302,-56.86
1344.317,-56.97
1344.332,-57.31
1344.347,-57.03
1344.362,-56.82
1344.377,-57.22
1344.392,-57.0
1344.407,-56.76
1344.422,-57.16
1344.437,-57.3
1344.452,-57.08
1344.467,-56.98
1344.482,-57.36
1344.497,-57.4
1344.512,-57.05
1344.527,-57.37
1344.542,-57.3
1344.557,-56.97
1344.572,-57.06
1344.587,-57.52
1344.602,-57.08
1344.617,-57.02
1344.632,-57.37
1344.647,-57.49
1344.662,-57.12
1344.677,-57.19
1344.692,-57.6
1344.707,-57.4
1344.722,-57.26
1344.737,-57.5
1344.752,-57.83
1344.767,-57.46
1344.782,-57.39
1344.797,-57.72
1344.812,-57.34
1344.827,-57.23
1344.842,-57.57
1344.857,-57.47
1344.872,-57.11
1344.887,-57.23
1344.902,-57.5
1344.917,-57.21
1344.932,-56.98
1344.947,-57.37
1344.962,-57.02
1344.977,-56.9
1344.992,-57.33
1345.007,-57.39
1345.022,-56.99
1345.037,-57.07
1345.052,-57.5
1345.067,-57.15
1345.082,-56.95
1345.097,-57.32
1345.112,-57.45
1345.127,-56.95
1345.142,-56.97
1345.157,-57.43
1345.172,-57.07
1345.187,-56.81
1345.202,-57.09
1345.217,-56.95
1345.232,-56.86
1345.247,-57.17
1345.262,-57.15
1345.277,-57.01
1345.292,-56.95
1345.307,-57.25
1345.322,-57.19
1345.337,-56.93
1345.352,-57.2
1345.367,-57.41
1345.382,-56.96
1345.397,-57.17
1345.412,-57.49
1345.427,-57.04
1345.442,-56.89
1345.457,-57.21
1345.472,-57.28
1345.487,-56.82
1345.502,-56.88
1345.517,-57.2
1345.532,-56.9
1345.547,-56.64
1345.562,-57.02
1345.577,-57.27
1345.592,-56.8
1345.607,-57.14
1345.622,-57.05
1345.637,-56.97
1345.652,-56.89
1345.667,-57.14
1345.682,-57.08
1345.697,-56.79
1345.712,-56.94
1345.727,-56.88
1345.742,-56.69
1345.757,-56.64
1345.772,-56.89
1345.787,-56.89
1345.802,-56.86
1345.817,-57.26
1345.832,-57.21
1345.847,-56.86
1345.862,-57.08
1345.877,-57.38
1345.892,-57.09
1345.907,-57.28
1345.922,-57.29
1345.937,-57.29
1345.952,-57.13
1345.967,-57.37
1345.982,-57.4
1345.997,-57.24
1346.012,-57.36
1346.027,-57.57
1346.042,-57.56
1346.057,-57.12
1346.072,-57.36
1346.087,-57.41
1346.102,-57.17
1346.117,-57.19
1346.132,-57.33
1346.147,-57.3
1346.162,-57.1
1346.177,-57.44
1346.192,-57.4
1346.207,-57.48
1346.222,-57.83
1346.237,-57.65
1346.252,-57.3
1346.267,-57.66
1346.282,-57.78
1346.297,-57.54
1346.312,-57.41
1346.327,-57.81
1346.342,-57.73
1346.357,-57.29
1346.372,-57.43
1346.387,-57.76
1346.402,-57.52
1346.417,-57.35
1346.432,-57.78
1346.447,-57.85
1346.462,-57.52
1346.477,-57.65
1346.492,-57.66
1346.507,-57.73
1346.522,-57.75
1346.537,-57.79
1346.552,-57.8
1346.567,-57.75
1346.582,-57.66
1346.597,-57.76
1346.612,-57.35
1346.627,-57.74
1346.642,-57.83
1346.657,-57.56
1346.672,-57.38
1346.687,-57.78
1346.702,-57.73
1346.717,-57.34
1346.732,-57.63
1346.747,-57.96
1346.762,-57.72
1346.777,-57.44
1346.792,-57.85
1346.807,-57.82
1346.822,-57.36
1346.837,-57.55
1346.852,-57.77
1346.867,-57.52
1346.882,-57.35
1346.897,-57.88
1346.912,-57.34
1346.927,-57.38
1346.942,-57.76
1346.957,-57.43
1346.972,-57.13
1346.987,-57.45
1347.002,-57.54
1347.017,-57.2
1347.032,-57.04
1347.047,-57.39
1347.062,-57.49
1347.077,-57.19
1347.092,-57.56
1347.107,-57.71
1347.122,-57.42
1347.137,-57.29
1347.152,-57.81
1347.167,-57.73
1347.182,-57.32
1347.197,-57.73
1347.212,-57.68
1347.227,-57.3
1347.242,-57.45
1347.257,-57.82
1347.272,-57.39
1347.287,-57.24
1347.302,-57.44
1347.317,-57.68
1347.332,-57.32
1347.347,-57.67
1347.362,-57.83
1347.377,-57.41
1347.392,-57.29
1347.407,-57.76
1347.422,-57.53
1347.437,-57.14
1347.452,-57.38
1347.467,-57.63
1347.482,-57.15
1347.497,-57.36
1347.512,-57.63
1347.527,-57.13
1347.542,-57.07
1347.557,-57.48
1347.572,-57.42
1347.587,-57.02
1347.602,-57.21
1347.617,-57.59
1347.632,-57.19
1347.647,-57.38
1347.662,-57.57
1347.677,-57.42
1347.692,-57.25
1347.707,-57.64
1347.722,-57.71
1347.737,-57.45
1347.752,-57.51
1347.767,-57.8
1347.782,-57.65
1347.797,-57.4
1347.812,-57.63
1347.827,-57.76
1347.842,-57.43
1347.857,-57.46
1347.872,-57.36
1347.887,-57.39
1347.902,-57.37
1347.917,-57.42
1347.932,-57.23
1347.947,-57.2
1347.962,-57.59
1347.977,-57.56
1347.992,-57.3
1348.007,-57.62
1348.022,-57.71
1348.037,-57.56
1348.052,-57.34
1348.067,-57.62
1348.082,-57.67
1348.097,-57.66
1348.112,-57.53
1348.127,-57.48
1348.142,-57.62
1348.157,-57.51
1348.172,-57.37
1348.187,-57.44
1348.202,-57.47
1348.217,-57.43
1348.232,-57.36
1348.247,-57.28
1348.262,-57.35
1348.277,-57.19
1348.292,-57.3
1348.307,-57.56
1348.322,-57.14
1348.337,-57.33
1348.352,-57.31
1348.367,-57.07
1348.382,-57.23
1348.397,-57.5
1348.412,-57.3
1348.427,-57.22
1348.442,-57.38
1348.457,-57.51
1348.472,-57.06
1348.487,-57.12
1348.502,-57.31
1348.517,-57.19
1348.532,-57.21
1348.547,-57.29
1348.562,-57.35
1348.577,-57.11
1348.592,-57.3
1348.607,-57.42
1348.622,-57.03
1348.637,-57.13
1348.652,-57.26
1348.667,-57.06
1348.682,-57.08
1348.697,-57.17
1348.712,-57.16
1348.727,-57.01
1348.742,-57.08
1348.757,-57.12
1348.772,-56.97
1348.787,-56.93
1348.802,-56.99
1348.817,-57.02
1348.832,-56.76
1348.847,-56.85
1348.862,-56.85
1348.877,-56.82
1348.892,-56.95
1348.907,-56.86
1348.922,-56.79
1348.937,-56.9
1348.952,-56.99
1348.967,-56.93
1348.982,-56.89
1348.997,-56.98
1349.012,-56.95
1349.027,-56.77
1349.042,-56.74
1349.057,-57.01
1349.072,-56.97
1349.087,-56.97
1349.102,-56.59
1349.117,-56.68
1349.132,-56.96
1349.147,-56.83
1349.162,-56.79
1349.177,-56.77
1349.193,-56.82
1349.207,-57.02
1349.222,-56.82
1349.237,-56.73
1349.252,-56.96
1349.267,-57.04
1349.282,-57.06
1349.297,-57.09
1349.313,-57.03
1349.328,-57.33
1349.343,-57.12
1349.357,-56.82
1349.372,-57.12
1349.387,-57.22
1349.402,-56.95
1349.417,-56.79
1349.432,-57.15
1349.448,-57.08
1349.463,-57.02
1349.478,-57.04
1349.492,-57.09
1349.507,-57.1
1349.522,-57.11
1349.537,-57.12
1349.552,-57.14
1349.568,-57.06
1349.583,-57.25
1349.598,-57.17
1349.613,-57.07
1349.628,-57.51
1349.642,-57.46
1349.657,-57.03
1349.672,-57.05
1349.688,-57.32
1349.703,-57.26
1349.718,-57.16
1349.733,-57.16
1349.748,-57.12
1349.763,-57.11
1349.777,-57.11
1349.792,-57.03
1349.807,-57.15
1349.823,-57.08
1349.838,-57.27
1349.853,-57.24
1349.868,-57.23
1349.883,-57.66
1349.898,-57.78
1349.913,-57.44
1349.927,-57.57
1349.943,-57.57
1349.958,-57.49
1349.973,-57.41
1349.988,-57.35
1350.003,-57.4
1350.018,-57.26
1350.033,-57.42
1350.048,-57.41
1350.063,-57.34
1350.078,-57.35
1350.093,-57.23
1350.108,-57.28
1350.123,-57.25
1350.138,-57.39
1350.153,-57.39
1350.168,-57.52
1350.183,-57.52
1350.198,-57.5
1350.213,-57.4
1350.228,-57.5
1350.243,-57.57
1350.258,-57.52
1350.273,-57.41
1350.288,-57.32
1350.303,-57.26
1350.318,-57.33
1350.333,-57.2
1350.348,-57.15
1350.363,-57.23
1350.378,-57.23
1350.393,-56.94
1350.408,-57.1
1350.423,-57.38
1350.438,-57.04
1350.453,-57.22
1350.468,-57.23
1350.483,-57.25
1350.498,-57.3
1350.513,-57.37
1350.528,-57.28
1350.543,-57.19
1350.558,-57.19
1350.573,-57.19
1350.588,-57.18
1350.603,-57.12
1350.618,-57.12
1350.633,-56.93
1350.648,-56.77
1350.663,-57.1
1350.678,-57.22
1350.693,-56.93
1350.708,-57.05
1350.723,-57.1
1350.738,-57.1
1350.753,-57.13
1350.768,-57.18
1350.783,-57.26
1350.798,-57.33
1350.813,-57.33
1350.828,-57.33
1350.843,-57.25
1350.858,-57.23
1350.873,-57.21
1350.888,-57.18
1350.903,-56.96
1350.918,-56.99
1350.933,-57.02
1350.948,-56.86
1350.963,-56.91
1350.978,-57.03
1350.993,-56.9
1351.008,-56.91
1351.023,-57.09
1351.038,-57.01
1351.053,-57.04
1351.068,-57.16
1351.083,-57.08
1351.098,-56.99
1351.113,-57.03
1351.128,-57.12
1351.143,-57.02
1351.158,-57.12
1351.173,-56.72
1351.188,-56.8
1351.203,-57.04
1351.218,-56.86
1351.233,-56.56
1351.248,-56.59
1351.263,-56.67
1351.278,-56.65
1351.293,-56.65
1351.308,-56.65
1351.323,-56.59
1351.338,-56.68
1351.353,-56.71
1351.368,-56.77
1351.383,-56.73
1351.398,-56.99
1351.413,-56.94
1351.428,-56.73
1351.443,-56.99
1351.458,-56.96
1351.473,-56.58
1351.488,-56.49
1351.503,-56.81
1351.518,-56.71
1351.533,-56.79
1351.548,-56.79
1351.563,-56.79
1351.578,-56.84
1351.593,-56.84
1351.608,-56.8
1351.623,-56.82
1351.638,-56.84
1351.653,-57.06
1351.668,-56.87
1351.683,-56.73
1351.698,-57.11
1351.713,-57.07
1351.728,-56.99
1351.743,-56.93
1351.758,-56.86
1351.773,-56.94
1351.788,-56.95
1351.803,-56.88
1351.818,-56.86
1351.833,-56.88
1351.848,-56.91
1351.863,-56.92
1351.878,-56.85
1351.893,-56.95
1351.908,-56.84
1351.923,-57.24
1351.938,-57.15
1351.953,-57.21
1351.968,-57.35
1351.983,-57.25
1351.998,-57.26
1352.013,-57.38
1352.028,-57.51
1352.043,-57.43
1352.058,-57.34
1352.073,-57.4
1352.088,-57.16
1352.103,-57.05
1352.118,-57.34
1352.133,-57.63
1352.148,-57.15
1352.163,-57.07
1352.178,-57.53
1352.193,-57.45
1352.208,-57.13
1352.223,-57.44
1352.238,-57.83
1352.253,-57.6
1352.268,-57.76
1352.283,-57.73
1352.298,-57.51
1352.313,-57.62
1352.328,-57.97
1352.343,-57.52
1352.358,-57.32
1352.373,-57.55
1352.388,-57.6
1352.403,-57.23
1352.418,-57.25
1352.433,-57.62
1352.448,-57.34
1352.463,-57.47
1352.478,-57.84
1352.493,-57.8
1352.508,-57.46
1352.523,-57.9
1352.538,-57.69
1352.553,-57.45
1352.568,-57.77
1352.583,-58.13
1352.598,-57.59
1352.613,-57.54
1352.628,-58.06
1352.643,-57.89
1352.658,-57.63
1352.673,-57.69
1352.688,-57.74
1352.703,-57.32
1352.718,-57.6
1352.733,-57.51
1352.748,-57.25
1352.763,-57.46
1352.778,-57.79
1352.793,-57.31
1352.808,-57.16
1352.823,-57.59
1352.838,-57.7
1352.853,-57.19
1352.868,-57.22
1352.883,-57.83
1352.898,-57.45
1352.913,-57.64
1352.928,-57.67
1352.943,-57.15
1352.958,-57.29
1352.973,-57.55
1352.988,-57.29
1353.003,-57.06
1353.018,-57.22
1353.033,-57.18
1353.048,-56.89
1353.063,-56.83
1353.078,-57.02
1353.093,-57.12
1353.108,-57.17
1353.123,-57.07
1353.138,-56.75
1353.153,-56.72
1353.168,-57.05
1353.183,-56.97
1353.198,-56.74
1353.213,-56.81
1353.228,-57.02
1353.243,-56.67
1353.258,-56.6
1353.273,-56.72
1353.288,-56.84
1353.303,-56.66
1353.318,-56.8
1353.333,-56.75
1353.348,-56.72
1353.363,-57.07
1353.378,-57.22
1353.393,-56.83
1353.408,-56.81
1353.423,-57.14
1353.438,-57.05
1353.453,-56.84
1353.468,-56.83
1353.483,-57.03
1353.498,-57.0
1353.513,-56.93
1353.528,-56.9
1353.543,-56.94
1353.558,-56.79
1353.573,-56.79
1353.588,-56.38
1353.603,-56.38
1353.618,-56.55
1353.633,-56.5
1353.648,-56.27
1353.663,-56.3
1353.678,-56.59
1353.693,-56.6
1353.708,-56.54
1353.723,-56.58
1353.738,-56.58
1353.753,-56.6
1353.768,-56.89
1353.783,-56.68
1353.798,-56.56
1353.813,-56.84
1353.828,-56.91
1353.843,-56.61
1353.858,-56.63
1353.873,-56.85
1353.888,-56.62
1353.903,-56.48
1353.918,-56.51
1353.933,-56.49
1353.948,-56.52
1353.963,-56.77
1353.978,-56.74
1353.993,-56.56
1354.008,-56.75
1354.023,-57.02
1354.038,-56.71
1354.053,-56.66
1354.068,-57.1
1354.083,-57.08
1354.098,-56.85
1354.113,-56.89
1354.128,-57.2
1354.143,-57.2
1354.158,-57.69
1354.173,-57.56
1354.188,-57.16
1354.203,-57.34
1354.218,-57.82
1354.233,-57.39
1354.248,-57.22
1354.263,-57.57
1354.278,-57.7
1354.293,-57.21
1354.308,-57.35
1354.323,-57.41
1354.338,-57.1
1354.353,-57.34
1354.368,-57.36
1354.383,-57.01
1354.398,-57.16
1354.413,-57.69
1354.428,-57.37
1354.443,-57.03
1354.458,-57.33
1354.473,-57.53
1354.488,-56.98
1354.503,-56.84
1354.518,-57.07
1354.533,-56.87
1354.548,-56.68
1354.563,-57.01
1354.578,-56.8
1354.593,-56.86
1354.608,-57.26
1354.623,-57.33
1354.638,-56.94
1354.653,-57.1
1354.668,-57.54
1354.683,-57.14
1354.698,-57.34
1354.713,-57.59
1354.728,-57.27
1354.743,-57.11
1354.758,-57.51
1354.773,-57.1
1354.788,-56.89
1354.803,-57.28
1354.818,-57.3
1354.833,-56.85
1354.848,-56.94
1354.863,-57.38
1354.878,-57.12
1354.893,-57.21
1354.908,-57.39
1354.923,-57.24
1354.938,-57.05
1354.953,-57.54
1354.968,-57.33
1354.983,-57.0
1354.998,-57.22
1355.013,-57.47
1355.028,-57.07
1355.043,-57.14
1355.058,-57.45
1355.073,-56.97
1355.088,-56.96
1355.103,-57.19
1355.118,-57.13
1355.133,-56.78
1355.148,-57.03
1355.163,-56.87
1355.178,-56.61
1355.193,-56.82
1355.208,-57.04
1355.223,-56.72
1355.238,-56.63
1355.253,-56.87
1355.268,-56.7
1355.283,-56.55
1355.298,-56.98
1355.313,-56.92
1355.328,-56.81
1355.343,-57.1
1355.358,-57.05
1355.373,-56.65
1355.388,-56.7
1355.403,-56.97
1355.418,-56.64
1355.433,-56.49
1355.448,-56.86
1355.463,-56.56
1355.478,-56.35
1355.493,-56.6
1355.508,-56.62
1355.523,-56.5
1355.538,-56.75
1355.553,-56.89
1355.568,-56.59
1355.583,-56.76
1355.598,-57.09
1355.613,-56.75
1355.628,-56.85
1355.643,-57.13
1355.658,-56.96
1355.673,-56.59
1355.688,-56.99
1355.703,-56.72
1355.718,-56.4
1355.733,-56.64
1355.748,-56.9
1355.763,-56.45
1355.778,-56.49
1355.793,-56.88
1355.808,-56.75
1355.823,-56.69
1355.838,-57.19
1355.853,-57.07
1355.868,-56.65
1355.883,-57.01
1355.898,-56.93
1355.913,-56.6
1355.928,-56.75
1355.943,-57.05
1355.958,-56.71
1355.973,-56.49
1355.988,-56.79
1356.003,-56.57
1356.018,-56.41
1356.033,-56.74
1356.048,-56.82
1356.063,-56.48
1356.078,-56.81
1356.093,-56.94
1356.108,-56.63
1356.123,-56.63
1356.138,-57.04
1356.153,-57.0
1356.168,-56.75
1356.183,-57.12
1356.198,-57.07
1356.213,-56.81
1356.228,-56.94
1356.243,-57.13
1356.258,-56.86
1356.273,-56.99
1356.288,-57.32
1356.303,-56.95
1356.318,-56.8
1356.333,-57.18
1356.348,-57.13
1356.363,-56.81
1356.378,-57.27
1356.393,-57.2
1356.408,-56.95
1356.423,-57.1
1356.438,-57.55
1356.453,-57.08
1356.468,-57.3
1356.483,-57.79
1356.498,-57.58
1356.513,-57.39
1356.528,-57.6
1356.543,-57.7
1356.558,-57.49
1356.573,-57.82
1356.588,-57.89
1356.603,-57.56
1356.618,-57.73
1356.633,-57.73
1356.648,-57.39
1356.663,-57.44
1356.678,-57.86
1356.693,-57.69
1356.708,-57.4
1356.723,-57.66
1356.738,-58.0
1356.753,-57.59
1356.768,-58.0
1356.783,-58.27
1356.798,-57.7
1356.813,-57.67
1356.828,-57.91
1356.843,-57.44
1356.858,-57.36
1356.873,-57.69
1356.888,-57.63
1356.903,-57.33
1356.918,-57.51
1356.933,-57.57
1356.948,-57.18
1356.963,-57.22
1356.978,-57.66
1356.993,-57.36
1357.008,-57.52
1357.023,-57.89
1357.038,-57.5
1357.053,-57.25
1357.068,-57.55
1357.083,-57.76
1357.098,-57.31
1357.113,-57.34
1357.128,-57.48
1357.143,-57.06
1357.158,-57.04
1357.173,-57.39
1357.188,-56.97
1357.203,-56.97
1357.219,-57.3
1357.233,-57.12
1357.248,-56.85
1357.263,-57.01
1357.278,-57.27
1357.293,-56.89
1357.308,-57.02
1357.323,-57.29
1357.339,-56.91
1357.354,-56.86
1357.369,-57.34
1357.383,-56.94
1357.398,-56.97
1357.413,-57.21
1357.428,-57.25
1357.443,-56.83
1357.458,-56.95
1357.474,-57.27
1357.489,-56.78
1357.504,-56.73
1357.518,-57.13
1357.533,-56.96
1357.548,-56.83
1357.563,-57.16
1357.578,-56.84
1357.594,-56.69
1357.609,-56.88
1357.624,-57.16
1357.639,-56.83
1357.654,-57.16
1357.668,-57.27
1357.683,-57.04
1357.698,-56.97
1357.714,-57.37
1357.729,-57.3
1357.744,-56.92
1357.759,-57.26
1357.774,-57.07
1357.789,-56.75
1357.803,-57.16
1357.818,-57.08
1357.833,-56.74
1357.849,-57.01
1357.864,-57.19
1357.879,-56.96
1357.894,-56.87
1357.909,-57.32
1357.924,-57.24
1357.939,-57.18
1357.953,-57.61
1357.969,-57.28
1357.984,-57.13
1357.999,-57.4
1358.014,-57.38
1358.029,-56.98
1358.044,-57.06
1358.059,-57.38
1358.074,-57.15
1358.089,-56.75
1358.104,-57.12
1358.119,-56.88
1358.134,-57.05
1358.149,-57.44
1358.164,-57.16
1358.179,-56.72
1358.194,-57.11
1358.209,-57.31
1358.224,-56.91
1358.239,-56.91
1358.254,-57.37
1358.269,-57.31
1358.284,-57.35
1358.299,-57.56
1358.314,-57.17
1358.329,-57.07
1358.344,-57.54
1358.359,-57.31
1358.374,-56.9
1358.389,-57.14
1358.404,-57.47
1358.419,-57.13
1358.434,-57.2
1358.449,-57.15
1358.464,-57.14
1358.479,-57.05
1358.494,-57.33
1358.509,-57.2
1358.524,-56.92
1358.539,-57.29
1358.554,-57.36
1358.569,-56.95
1358.584,-56.95
1358.599,-56.97
1358.614,-56.95
1358.629,-56.84
1358.644,-56.95
1358.659,-56.46
1358.674,-56.54
1358.689,-56.78
1358.704,-56.65
1358.719,-56.35
1358.734,-56.51
1358.749,-56.48
1358.764,-56.36
1358.779,-56.44
1358.794,-56.48
1358.809,-56.25
1358.824,-56.46
1358.839,-56.7
1358.854,-56.39
1358.869,-56.29
1358.884,-56.68
1358.899,-56.62
1358.914,-56.41
1358.929,-56.48
1358.944,-56.49
1358.959,-56.21
1358.974,-56.67
1358.989,-56.59
1359.004,-56.24
1359.019,-56.35
1359.034,-56.67
1359.049,-56.51
1359.064,-56.59
1359.079,-56.6
1359.094,-56.61
1359.109,-56.57
1359.124,-57.0
1359.139,-56.8
1359.154,-56.49
1359.169,-56.84
1359.184,-57.12
1359.199,-56.7
1359.214,-56.64
1359.229,-56.74
1359.244,-56.66
1359.259,-56.54
1359.274,-56.67
1359.289,-56.28
1359.304,-56.13
1359.319,-56.49
1359.334,-56.37
1359.349,-56.09
1359.364,-56.38
1359.379,-56.44
1359.394,-56.39
1359.409,-56.36
1359.424,-56.49
1359.439,-56.17
1359.454,-56.41
1359.469,-56.67
1359.484,-56.45
1359.499,-56.25
1359.514,-56.56
1359.529,-56.54
1359.544,-56.46
1359.559,-56.56
1359.574,-56.47
1359.589,-56.49
1359.604,-56.84
1359.619,-56.86
1359.634,-56.54
1359.649,-56.57
1359.664,-57.03
1359.679,-56.86
1359.694,-57.03
1359.709,-57.08
1359.724,-57.03
1359.739,-56.96
1359.754,-57.37
1359.769,-57.24
1359.784,-56.86
1359.799,-57.13
1359.814,-57.23
1359.829,-56.89
1359.844,-56.79
1359.859,-56.8
1359.874,-56.71
1359.889,-56.59
1359.904,-56.76
1359.919,-56.48
1359.934,-56.41
1359.949,-56.76
1359.964,-56.85
1359.979,-56.47
1359.994,-56.62
1360.009,-56.7
1360.024,-56.75
1360.039,-56.78
1360.054,-56.89
1360.069,-56.42
1360.084,-56.69
1360.099,-57.01
1360.114,-56.66
1360.129,-56.38
1360.144,-56.65
1360.159,-56.83
1360.174,-56.67
1360.189,-56.72
1360.204,-56.77
1360.219,-56.74
1360.234,-56.96
1360.249,-57.16
1360.264,-56.83
1360.279,-56.76
1360.294,-57.22
1360.309,-57.26
1360.324,-57.3
1360.339,-57.59
1360.354,-57.53
1360.369,-57.39
1360.384,-57.94
1360.399,-57.79
1360.414,-57.28
1360.429,-57.38
1360.444,-57.86
1360.459,-57.47
1360.474,-57.56
1360.489,-57.61
1360.504,-57.62
1360.519,-57.49
1360.534,-57.82
1360.549,-57.48
1360.564,-57.24
1360.579,-57.58
1360.594,-57.81
1360.609,-57.33
1360.624,-57.59
1360.639,-57.62
1360.654,-57.62
1360.669,-57.56
1360.684,-57.78
1360.699,-57.17
1360.714,-57.17
1360.729,-57.6
1360.744,-57.47
1360.759,-57.41
1360.774,-57.45
1360.789,-57.56
1360.804,-57.37
1360.819,-57.52
1360.834,-57.65
1360.849,-57.48
1360.864,-57.75
1360.879,-58.27
1360.894,-58.0
1360.909,-58.24
1360.924,-58.32
1360.939,-58.28
1360.954,-58.01
1360.969,-58.23
1360.984,-58.23
1360.999,-57.83
1361.014,-58.26
1361.029,-58.05
1361.044,-57.88
1361.059,-57.94
1361.074,-58.03
1361.089,-57.75
1361.104,-57.82
1361.119,-58.08
1361.134,-58.01
1361.149,-57.76
1361.164,-57.64
1361.179,-57.59
1361.194,-57.61
1361.209,-57.85
1361.224,-57.75
1361.239,-57.54
1361.254,-57.69
1361.269,-57.76
1361.284,-57.58
1361.299,-57.45
1361.314,-57.33
1361.329,-57.17
1361.344,-57.21
1361.359,-57.33
1361.374,-57.2
1361.389,-56.93
1361.404,-57.14
1361.419,-57.16
1361.434,-57.51
1361.449,-57.12
1361.464,-57.25
1361.479,-57.3
1361.494,-57.36
1361.509,-57.33
1361.524,-57.36
1361.539,-57.43
1361.554,-57.55
1361.569,-57.73
1361.584,-57.71
1361.599,-57.21
1361.614,-57.39
1361.629,-57.36
1361.644,-57.37
1361.659,-57.34
1361.674,-57.33
1361.689,-57.3
1361.704,-57.39
1361.719,-57.84
1361.734,-57.52
1361.749,-57.43
1361.764,-57.51
1361.779,-57.68
1361.794,-57.67
1361.809,-57.73
1361.824,-57.8
1361.839,-57.59
1361.854,-58.03
1361.869,-58.27
1361.884,-57.7
1361.899,-57.73
1361.914,-57.57
1361.929,-57.68
1361.944,-57.66
1361.959,-57.62
1361.974,-57.25
1361.989,-57.25
1362.004,-57.72
1362.019,-57.59
1362.034,-57.55
1362.049,-57.53
1362.064,-57.6
1362.079,-57.78
1362.094,-57.73
1362.109,-57.63
1362.124,-57.33
1362.139,-57.59
1362.154,-57.95
1362.169,-57.83
1362.184,-57.8
1362.199,-57.68
1362.214,-57.7
1362.229,-57.54
1362.244,-57.9
1362.259,-57.53
1362.274,-57.38
1362.289,-57.89
1362.304,-57.9
1362.319,-57.94
1362.334,-57.87
1362.349,-57.85
1362.364,-57.72
1362.379,-58.07
1362.394,-58.34
1362.409,-57.72
1362.424,-57.88
1362.439,-57.85
1362.454,-57.87
1362.469,-57.82
1362.484,-57.69
1362.499,-57.62
1362.514,-57.64
1362.529,-58.02
1362.544,-57.57
1362.559,-57.51
1362.574,-57.56
1362.589,-57.66
1362.604,-57.63
1362.619,-57.78
1362.634,-57.81
1362.649,-57.68
1362.664,-57.98
1362.679,-58.07
1362.694,-57.64
1362.709,-57.81
1362.724,-57.67
1362.739,-57.55
1362.754,-57.59
1362.769,-57.54
1362.784,-57.41
1362.799,-57.26
1362.814,-57.65
1362.829,-57.41
1362.844,-57.33
1362.859,-57.35
1362.874,-57.38
1362.889,-57.27
1362.904,-57.35
1362.919,-57.38
1362.934,-57.06
1362.949,-57.12
1362.964,-57.39
1362.979,-57.4
1362.994,-57.44
1363.009,-57.44
1363.024,-57.41
1363.039,-57.44
1363.054,-57.49
1363.069,-57.16
1363.084,-56.88
1363.099,-57.29
1363.114,-57.29
1363.129,-57.32
1363.144,-57.18
1363.159,-57.15
1363.174,-57.1
1363.189,-57.11
1363.204,-57.18
1363.219,-56.76
1363.234,-57.0
1363.249,-57.07
1363.264,-56.97
1363.279,-57.09
1363.294,-57.21
1363.309,-57.12
1363.324,-57.0
1363.339,-57.46
1363.354,-57.09
1363.369,-57.03
1363.384,-57.12
1363.399,-56.81
1363.414,-56.8
1363.429,-57.13
1363.444,-57.03
1363.459,-56.74
1363.474,-57.17
1363.489,-57.16
1363.504,-56.76
1363.519,-57.1
1363.534,-57.01
1363.549,-56.85
1363.564,-56.85
1363.579,-57.1
1363.594,-56.8
1363.609,-57.08
1363.624,-57.4
1363.639,-56.96
1363.654,-56.95
1363.669,-57.1
1363.684,-56.86
1363.699,-56.8
1363.714,-57.06
1363.729,-57.2
1363.744,-56.95
1363.759,-57.4
1363.774,-57.39
1363.789,-57.04
1363.804,-57.22
1363.819,-57.42
1363.834,-57.21
1363.849,-57.3
1363.864,-57.59
1363.879,-57.01
1363.894,-57.03
1363.909,-57.55
1363.924,-57.21
1363.939,-57.17
1363.954,-57.47
1363.969,-57.39
1363.984,-57.22
1363.999,-57.36
1364.014,-57.23
1364.029,-56.87
1364.044,-57.12
1364.059,-57.3
1364.074,-57.21
1364.089,-57.55
1364.104,-57.58
1364.119,-57.29
1364.134,-57.23
1364.149,-57.73
1364.164,-57.25
1364.179,-57.28
1364.194,-57.81
1364.209,-57.68
1364.224,-57.73
1364.239,-57.95
1364.254,-57.82
1364.269,-57.55
1364.284,-58.07
1364.299,-57.79
1364.314,-57.37
1364.329,-57.83
1364.344,-57.62
1364.359,-57.53
1364.374,-57.68
1364.389,-57.79
1364.404,-57.62
1364.419,-57.9
1364.434,-58.01
1364.449,-57.54
1364.464,-57.75
1364.479,-57.92
1364.494,-57.68
1364.509,-57.82
1364.524,-57.78
1364.539,-57.73
1364.554,-57.67
1364.569,-58.31
1364.584,-57.89
1364.599,-57.66
1364.614,-57.68
1364.629,-57.6
1364.644,-57.5
1364.659,-57.62
1364.674,-57.45
1364.689,-57.22
1364.704,-57.49
1364.719,-57.76
1364.734,-57.28
1364.749,-57.25
1364.764,-57.36
1364.779,-57.27
1364.794,-57.5
1364.809,-57.92
1364.824,-57.44
1364.839,-57.14
1364.854,-57.53
1364.869,-57.5
1364.884,-57.43
1364.899,-57.48
1364.914,-57.15
1364.929,-57.03
1364.944,-57.36
1364.959,-57.46
1364.974,-57.07
1364.989,-57.11
1365.004,-57.34
1365.019,-57.46
1365.034,-57.72
1365.049,-57.92
1365.064,-57.49
1365.079,-57.48
1365.094,-57.73
1365.109,-57.58
1365.124,-57.45
1365.139,-57.65
1365.154,-57.29
1365.169,-57.37
1365.184,-57.69
1365.199,-57.35
1365.214,-57.15
1365.229,-57.27
1365.245,-57.5
1365.259,-57.14
1365.274,-57.57
1365.289,-57.44
1365.304,-57.26
1365.319,-57.47
1365.334,-57.63
1365.349,-57.46
1365.365,-57.43
1365.38,-57.55
1365.395,-57.15
1365.409,-57.22
1365.424,-57.45
1365.439,-57.09
1365.454,-57.11
1365.469,-57.35
1365.484,-57.24
1365.5,-57.08
1365.515,-57.4
1365.53,-57.43
1365.544,-57.13
1365.559,-57.34
1365.574,-57.17
1365.589,-57.02
1365.604,-57.14
1365.62,-57.33
1365.635,-56.94
1365.65,-57.08
1365.665,-57.4
1365.68,-57.2
1365.694,-57.26
1365.709,-57.57
1365.724,-57.25
1365.74,-57.1
1365.755,-57.63
1365.77,-57.1
1365.785,-57.0
1365.8,-57.35
1365.815,-57.15
1365.83,-56.91
1365.844,-57.22
1365.859,-57.39
1365.875,-56.95
1365.89,-57.26
1365.905,-57.38
1365.92,-57.29
1365.935,-57.51
1365.95,-57.66
1365.965,-57.24
1365.979,-57.48
1365.995,-57.71
1366.01,-57.31
1366.025,-57.18
1366.04,-57.48
1366.055,-57.0
1366.07,-57.0
1366.085,-57.34
1366.1,-56.99
1366.115,-56.89
1366.13,-57.24
1366.145,-57.01
1366.16,-57.05
1366.175,-57.3
1366.19,-57.24
1366.205,-57.05
1366.22,-57.49
1366.235,-57.36
1366.25,-56.99
1366.265,-57.35
1366.28,-57.33
1366.295,-56.94
1366.31,-56.98
1366.325,-57.31
1366.34,-56.88
1366.355,-56.95
1366.37,-57.15
1366.385,-56.94
1366.4,-57.07
1366.415,-57.43
1366.43,-57.11
1366.445,-57.07
1366.46,-57.38
1366.475,-57.23
1366.49,-56.96
1366.505,-57.34
1366.52,-57.19
1366.535,-56.94
1366.55,-57.1
1366.565,-57.47
1366.58,-57.04
1366.595,-57.34
1366.61,-57.29
1366.625,-56.93
1366.64,-57.12
1366.655,-57.34
1366.67,-56.95
1366.685,-56.93
1366.7,-57.05
1366.715,-56.73
1366.73,-56.65
1366.745,-57.15
1366.76,-56.81
1366.775,-56.81
1366.79,-57.22
1366.805,-56.99
1366.82,-56.76
1366.835,-57.17
1366.85,-57.15
1366.865,-56.76
1366.88,-57.06
1366.895,-56.92
1366.91,-56.64
1366.925,-56.88
1366.94,-56.7
1366.955,-56.45
1366.97,-56.81
1366.985,-56.66
1367.0,-56.41
1367.015,-56.7
1367.03,-57.05
1367.045,-56.61
1367.06,-56.96
1367.075,-57.12
1367.09,-56.81
1367.105,-57.0
1367.12,-57.3
1367.135,-56.91
1367.15,-56.94
1367.165,-57.27
1367.18,-56.94
1367.195,-56.86
1367.21,-57.22
1367.225,-56.76
1367.24,-56.76
1367.255,-57.16
1367.27,-57.09
1367.285,-56.76
1367.3,-57.14
1367.315,-57.14
1367.33,-56.81
1367.345,-57.18
1367.36,-57.25
1367.375,-56.94
1367.39,-57.06
1367.405,-57.56
1367.42,-57.03
1367.435,-57.22
1367.45,-57.46
1367.465,-57.09
1367.48,-57.11
1367.495,-57.52
1367.51,-57.27
1367.525,-56.99
1367.54,-57.38
1367.555,-57.15
1367.57,-56.8
1367.585,-57.29
1367.6,-56.97
1367.615,-56.93
1367.63,-57.16
1367.645,-57.06
1367.66,-56.82
1367.675,-57.2
1367.69,-57.25
1367.705,-57.14
1367.72,-57.49
1367.735,-57.9
1367.75,-57.36
1367.765,-57.62
1367.78,-57.78
1367.795,-57.45
1367.81,-57.37
1367.825,-57.71
1367.84,-57.19
1367.855,-57.5
1367.87,-57.61
1367.885,-57.28
1367.9,-57.22
1367.915,-57.7
1367.93,-57.35
1367.945,-57.42
1367.96,-57.87
1367.975,-57.37
1367.99,-57.52
1368.005,-57.99
1368.02,-57.73
1368.035,-57.29
1368.05,-57.65
1368.065,-57.12
1368.08,-57.1
1368.095,-57.51
1368.11,-57.37
1368.125,-57.01
1368.14,-57.25
1368.155,-57.53
1368.17,-57.0
1368.185,-57.57
1368.2,-57.4
1368.215,-57.07
1368.23,-57.3
1368.245,-57.58
1368.26,-57.31
1368.275,-57.13
1368.29,-57.26
1368.305,-56.81
1368.32,-56.95
1368.335,-57.27
1368.35,-56.98
1368.365,-56.78
1368.38,-57.01
1368.395,-56.89
1368.41,-56.63
1368.425,-56.95
1368.44,-56.75
1368.455,-56.58
1368.47,-56.91
1368.485,-56.96
1368.5,-57.0
1368.515,-56.94
1368.53,-56.89
1368.545,-56.66
1368.56,-57.18
1368.575,-57.19
1368.59,-56.75
1368.605,-56.79
1368.62,-56.76
1368.635,-56.74
1368.65,-57.11
1368.665,-57.17
1368.68,-56.68
1368.695,-56.73
1368.71,-57.04
1368.725,-56.79
1368.74,-56.75
1368.755,-56.86
1368.77,-56.4
1368.785,-56.48
1368.8,-56.76
1368.815,-56.52
1368.83,-56.25
1368.845,-56.66
1368.86,-56.3
1368.875,-56.31
1368.89,-56.75
1368.905,-56.6
1368.92,-56.33
1368.935,-56.71
1368.95,-56.83
1368.965,-56.5
1368.98,-56.89
1368.995,-56.7
1369.01,-56.42
1369.025,-56.59
1369.04,-56.8
1369.055,-56.48
1369.07,-56.61
1369.085,-56.88
1369.1,-56.43
1369.115,-56.59
1369.13,-56.88
1369.145,-56.6
1369.16,-56.44
1369.175,-57.03
1369.19,-56.6
1369.205,-56.53
1369.22,-56.82
1369.235,-56.61
1369.25,-56.42
1369.265,-56.76
1369.28,-56.67
1369.295,-56.6
1369.31,-56.95
1369.325,-57.14
1369.34,-56.87
1369.355,-57.21
1369.37,-57.06
1369.385,-56.75
1369.4,-57.07
1369.415,-57.26
1369.43,-56.89
1369.445,-56.97
1369.46,-57.0
1369.475,-56.64
1369.49,-56.9
1369.505,-56.76
1369.52,-56.4
1369.535,-56.52
1369.55,-56.86
1369.565,-56.39
1369.58,-56.5
1369.595,-56.74
1369.61,-56.52
1369.625,-56.6
1369.64,-56.92
1369.655,-56.54
1369.67,-56.64
1369.685,-56.99
1369.7,-56.71
1369.715,-56.49
1369.73,-56.95
1369.745,-56.71
1369.76,-56.49
1369.775,-57.11
1369.79,-56.82
1369.805,-56.7
1369.82,-57.12
1369.835,-57.12
1369.85,-56.63
1369.865,-56.9
1369.88,-56.71
1369.895,-56.34
1369.91,-56.67
1369.925,-56.76
1369.94,-56.36
1369.955,-56.35
1369.97,-56.62
1369.985,-56.25
1370.0,-56.46
