wavelength_axis,light_level
1250.0,-57.06
1250.015,-57.08
1250.03,-56.74
1250.045,-56.96
1250.06,-57.03
1250.075,-57.28
1250.09,-57.16
1250.105,-56.91
1250.12,-56.93
1250.135,-57.06
1250.15,-57.14
1250.165,-57.03
1250.18,-56.94
1250.195,-56.71
1250.21,-57.08
1250.225,-57.04
1250.24,-57.27
1250.255,-56.93
1250.27,-56.87
1250.285,-56.64
1250.3,-57.01
1250.315,-57.01
1250.33,-57.02
1250.345,-56.69
1250.36,-56.76
1250.375,-57.11
1250.39,-57.08
1250.405,-57.22
1250.42,-56.9
1250.435,-56.94
1250.45,-56.96
1250.465,-57.19
1250.48,-57.1
1250.495,-56.96
1250.51,-56.59
1250.525,-56.87
1250.54,-56.92
1250.555,-57.25
1250.57,-57.03
1250.585,-56.93
1250.6,-56.91
1250.615,-57.06
1250.63,-57.17
1250.645,-57.14
1250.66,-57.0
1250.675,-56.89
1250.69,-57.21
1250.705,-57.27
1250.72,-57.45
1250.735,-57.09
1250.75,-57.18
1250.765,-57.28
1250.78,-57.51
1250.795,-57.48
1250.81,-57.36
1250.825,-57.06
1250.84,-57.09
1250.855,-57.46
1250.87,-57.5
1250.885,-57.38
1250.9,-57.07
1250.915,-56.92
1250.93,-57.03
1250.945,-57.23
1250.96,-56.88
1250.975,-56.88
1250.99,-56.59
1251.005,-56.75
1251.02,-56.84
1251.035,-57.1
1251.05,-56.8
1251.065,-56.69
1251.08,-56.76
1251.095,-56.85
1251.11,-57.05
1251.125,-56.66
1251.14,-56.58
1251.155,-56.46
1251.17,-56.79
1251.185,-56.83
1251.2,-56.97
1251.215,-56.57
1251.23,-56.72
1251.245,-56.78
1251.26,-57.21
1251.275,-56.99
1251.29,-57.05
1251.305,-56.74
1251.32,-56.79
1251.335,-57.01
1251.35,-57.04
1251.365,-56.9
1251.38,-56.64
1251.395,-56.94
1251.41,-56.97
1251.425,-57.2
1251.44,-56.94
1251.455,-56.85
1251.47,-56.57
1251.485,-56.87
1251.5,-56.91
1251.515,-56.95
1251.53,-56.74
1251.545,-56.69
1251.56,-56.65
1251.575,-56.89
1251.59,-57.0
1251.605,-56.65
1251.62,-56.63
1251.635,-56.57
1251.65,-56.9
1251.665,-56.8
1251.68,-56.71
1251.695,-56.42
1251.71,-56.53
1251.725,-56.58
1251.74,-56.57
1251.755,-56.5
1251.77,-56.22
1251.785,-56.23
1251.8,-56.26
1251.815,-56.49
1251.83,-56.55
1251.845,-56.5
1251.86,-56.21
1251.875,-56.45
1251.89,-56.54
1251.905,-56.57
1251.92,-56.4
1251.935,-56.4
1251.95,-56.46
1251.965,-56.58
1251.98,-56.7
1251.995,-56.64
1252.01,-56.58
1252.025,-56.69
1252.04,-56.65
1252.055,-56.68
1252.07,-56.6
1252.085,-56.49
1252.1,-56.43
1252.115,-56.53
1252.13,-56.51
1252.145,-56.43
1252.16,-56.39
1252.175,-56.39
1252.19,-56.47
1252.205,-56.49
1252.22,-56.52
1252.235,-56.5
1252.25,-56.64
1252.265,-56.41
1252.28,-56.52
1252.295,-56.46
1252.31,-56.69
1252.325,-56.65
1252.34,-56.69
1252.355,-56.68
1252.37,-56.83
1252.385,-56.9
1252.4,-56.73
1252.415,-56.89
1252.43,-56.94
1252.445,-56.9
1252.46,-56.77
1252.475,-57.02
1252.49,-56.82
1252.505,-56.98
1252.52,-56.98
1252.535,-56.96
1252.55,-56.92
1252.565,-57.05
1252.58,-57.03
1252.595,-56.73
1252.61,-56.84
1252.625,-56.81
1252.64,-56.99
1252.655,-56.89
1252.67,-56.98
1252.685,-56.94
1252.7,-57.19
1252.715,-57.13
1252.73,-57.12
1252.745,-57.15
1252.76,-57.01
1252.775,-57.1
1252.79,-57.05
1252.805,-57.24
1252.82,-56.81
1252.835,-56.82
1252.85,-56.79
1252.865,-56.99
1252.88,-56.87
1252.895,-56.94
1252.91,-56.88
1252.925,-56.96
1252.94,-57.07
1252.955,-57.03
1252.97,-57.08
1252.985,-56.86
1253.0,-57.03
1253.015,-57.1
1253.03,-57.16
1253.045,-56.9
1253.06,-56.98
1253.075,-56.96
1253.09,-57.0
1253.105,-57.23
1253.12,-57.22
1253.135,-57.19
1253.15,-57.1
1253.165,-57.19
1253.18,-57.12
1253.195,-57.31
1253.21,-56.9
1253.225,-56.99
1253.24,-56.93
1253.255,-56.92
1253.271,-56.93
1253.285,-56.96
1253.3,-56.99
1253.315,-56.87
1253.33,-57.11
1253.345,-56.98
1253.36,-57.06
1253.375,-56.94
1253.391,-56.88
1253.406,-56.86
1253.421,-56.87
1253.435,-56.63
1253.45,-56.71
1253.465,-56.71
1253.48,-56.6
1253.495,-56.86
1253.51,-56.8
1253.526,-56.88
1253.541,-56.87
1253.556,-57.17
1253.571,-57.05
1253.585,-57.09
1253.6,-57.11
1253.615,-57.04
1253.63,-57.03
1253.646,-57.0
1253.661,-57.07
1253.676,-57.07
1253.691,-57.12
1253.706,-56.93
1253.72,-57.22
1253.735,-56.97
1253.75,-57.13
1253.766,-57.13
1253.781,-57.09
1253.796,-57.04
1253.811,-57.03
1253.826,-57.21
1253.841,-57.12
1253.856,-57.03
1253.87,-57.01
1253.885,-57.25
1253.901,-57.2
1253.916,-57.25
1253.931,-57.1
1253.946,-57.28
1253.961,-57.16
1253.976,-57.26
1253.991,-57.33
1254.005,-57.2
1254.021,-57.13
1254.036,-57.01
1254.051,-57.15
1254.066,-56.87
1254.081,-57.06
1254.096,-56.96
1254.111,-56.9
1254.126,-56.71
1254.141,-56.92
1254.156,-56.95
1254.171,-57.07
1254.186,-56.96
1254.201,-56.82
1254.216,-57.13
1254.231,-56.98
1254.246,-57.15
1254.261,-57.0
1254.276,-57.15
1254.291,-56.94
1254.306,-57.11
1254.321,-57.04
1254.336,-57.03
1254.351,-57.12
1254.366,-57.26
1254.381,-57.16
1254.396,-57.06
1254.411,-57.1
1254.426,-56.99
1254.441,-57.12
1254.456,-56.89
1254.471,-57.05
1254.486,-57.1
1254.501,-57.04
1254.516,-56.91
1254.531,-56.87
1254.546,-56.86
1254.561,-56.78
1254.576,-57.0
1254.591,-56.78
1254.606,-56.96
1254.621,-56.99
1254.636,-57.25
1254.651,-57.19
1254.666,-57.21
1254.681,-56.94
1254.696,-57.07
1254.711,-57.12
1254.726,-56.97
1254.741,-57.16
1254.756,-57.09
1254.771,-57.07
1254.786,-57.06
1254.801,-57.33
1254.816,-57.1
1254.831,-57.29
1254.846,-57.17
1254.861,-57.26
1254.876,-57.22
1254.891,-57.24
1254.906,-57.14
1254.921,-56.94
1254.936,-57.1
1254.951,-57.03
1254.966,-57.24
1254.981,-57.12
1254.996,-57.06
1255.011,-57.02
1255.026,-57.19
1255.041,-57.09
1255.056,-57.19
1255.071,-57.17
1255.086,-56.93
1255.101,-56.94
1255.116,-56.92
1255.131,-57.08
1255.146,-56.72
1255.161,-56.75
1255.176,-56.63
1255.191,-56.87
1255.206,-56.74
1255.221,-56.75
1255.236,-56.71
1255.251,-56.62
1255.266,-56.64
1255.281,-56.6
1255.296,-56.66
1255.311,-56.4
1255.326,-56.47
1255.341,-56.4
1255.356,-56.43
1255.371,-56.21
1255.386,-56.21
1255.401,-56.11
1255.416,-56.26
1255.431,-56.44
1255.446,-56.4
1255.461,-56.42
1255.476,-56.24
1255.491,-56.21
1255.506,-56.17
1255.521,-56.3
1255.536,-56.1
1255.551,-56.2
1255.566,-56.17
1255.581,-56.08
1255.596,-56.21
1255.611,-56.17
1255.626,-56.09
1255.641,-55.91
1255.656,-56.14
1255.671,-55.98
1255.686,-56.04
1255.701,-55.79
1255.716,-55.91
1255.731,-55.84
1255.746,-55.86
1255.761,-55.73
1255.776,-55.61
1255.791,-55.67
1255.806,-55.65
1255.821,-55.91
1255.836,-55.56
1255.851,-55.66
1255.866,-55.64
1255.881,-55.87
1255.896,-56.08
1255.911,-56.09
1255.926,-56.02
1255.941,-56.02
1255.956,-56.22
1255.971,-56.18
1255.986,-56.14
1256.001,-55.96
1256.016,-55.98
1256.031,-55.88
1256.046,-56.13
1256.061,-56.02
1256.076,-55.85
1256.091,-55.88
1256.106,-56.0
1256.121,-56.2
1256.136,-56.11
1256.151,-56.34
1256.166,-56.17
1256.181,-56.22
1256.196,-56.41
1256.211,-56.62
1256.226,-56.41
1256.241,-56.34
1256.256,-56.49
1256.271,-56.68
1256.286,-56.69
1256.301,-56.48
1256.316,-56.48
1256.331,-56.47
1256.346,-56.65
1256.361,-56.71
1256.376,-56.47
1256.391,-56.34
1256.406,-56.43
1256.421,-56.64
1256.436,-56.67
1256.451,-56.58
1256.466,-56.41
1256.481,-56.51
1256.496,-56.85
1256.511,-57.1
1256.526,-56.91
1256.541,-56.78
1256.556,-56.7
1256.571,-56.7
1256.586,-57.04
1256.601,-56.93
1256.616,-56.51
1256.631,-56.57
1256.646,-56.77
1256.661,-56.79
1256.676,-56.69
1256.691,-56.54
1256.706,-56.51
1256.721,-56.54
1256.736,-56.71
1256.751,-56.85
1256.766,-56.63
1256.781,-56.61
1256.796,-56.65
1256.811,-56.9
1256.826,-56.76
1256.841,-56.69
1256.856,-56.67
1256.871,-56.66
1256.886,-56.91
1256.901,-56.74
1256.916,-56.59
1256.931,-56.52
1256.946,-56.6
1256.961,-56.77
1256.976,-56.75
1256.991,-56.62
1257.006,-56.54
1257.021,-56.55
1257.036,-56.7
1257.051,-56.78
1257.066,-56.54
1257.081,-56.7
1257.096,-56.71
1257.111,-56.9
1257.126,-57.04
1257.141,-57.09
1257.156,-56.76
1257.171,-56.75
1257.186,-57.09
1257.201,-56.94
1257.216,-56.86
1257.231,-56.65
1257.246,-56.64
1257.261,-56.57
1257.276,-56.61
1257.291,-56.69
1257.306,-56.85
1257.321,-56.69
1257.336,-56.75
1257.351,-57.0
1257.366,-56.83
1257.381,-57.0
1257.396,-56.84
1257.411,-56.95
1257.426,-56.76
1257.441,-56.82
1257.456,-56.63
1257.471,-56.59
1257.486,-56.49
1257.501,-56.36
1257.516,-56.45
1257.531,-56.21
1257.546,-56.36
1257.561,-56.35
1257.576,-56.58
1257.591,-56.57
1257.606,-56.52
1257.621,-56.55
1257.636,-56.51
1257.651,-56.66
1257.666,-56.46
1257.681,-56.6
1257.696,-56.55
1257.711,-56.58
1257.726,-56.48
1257.741,-56.66
1257.756,-56.54
1257.771,-56.44
1257.786,-56.45
1257.801,-56.55
1257.816,-56.67
1257.831,-56.52
1257.846,-56.67
1257.861,-56.5
1257.876,-56.58
1257.891,-56.74
1257.906,-56.81
1257.921,-56.67
1257.936,-56.58
1257.951,-56.79
1257.966,-56.59
1257.981,-56.66
1257.996,-56.5
1258.011,-56.45
1258.026,-56.47
1258.041,-56.68
1258.056,-56.67
1258.071,-56.51
1258.086,-56.4
1258.101,-56.43
1258.116,-56.67
1258.131,-56.5
1258.146,-56.45
1258.161,-56.26
1258.176,-56.37
1258.191,-56.51
1258.206,-56.63
1258.221,-56.49
1258.236,-56.41
1258.251,-56.55
1258.266,-56.64
1258.281,-56.95
1258.296,-56.69
1258.311,-56.33
1258.326,-56.36
1258.341,-56.51
1258.356,-56.61
1258.371,-56.38
1258.386,-56.21
1258.401,-56.22
1258.416,-56.48
1258.431,-56.65
1258.446,-56.66
1258.461,-56.5
1258.476,-56.49
1258.491,-56.88
1258.506,-57.1
1258.521,-56.91
1258.536,-56.86
1258.551,-56.82
1258.566,-56.79
1258.581,-57.14
1258.596,-56.9
1258.611,-56.6
1258.626,-56.49
1258.641,-56.69
1258.656,-56.8
1258.671,-56.72
1258.686,-56.51
1258.701,-56.39
1258.716,-56.67
1258.731,-56.97
1258.746,-57.08
1258.761,-56.86
1258.776,-56.82
1258.791,-57.14
1258.806,-57.36
1258.821,-57.17
1258.836,-56.94
1258.851,-56.76
1258.866,-56.88
1258.881,-57.29
1258.896,-57.07
1258.911,-56.73
1258.926,-56.53
1258.941,-56.7
1258.956,-56.78
1258.971,-56.66
1258.986,-56.45
1259.001,-56.32
1259.016,-56.47
1259.031,-56.79
1259.046,-56.92
1259.061,-56.68
1259.076,-56.6
1259.091,-56.78
1259.106,-57.02
1259.121,-57.0
1259.136,-56.82
1259.151,-56.57
1259.166,-56.62
1259.181,-56.85
1259.196,-56.81
1259.211,-56.49
1259.226,-56.38
1259.241,-56.37
1259.256,-56.57
1259.271,-56.61
1259.286,-56.42
1259.301,-56.29
1259.316,-56.36
1259.331,-56.74
1259.346,-56.96
1259.361,-56.63
1259.376,-56.56
1259.391,-56.75
1259.406,-56.95
1259.421,-56.95
1259.436,-56.74
1259.451,-56.46
1259.466,-56.49
1259.481,-56.71
1259.496,-56.74
1259.511,-56.56
1259.526,-56.49
1259.541,-56.5
1259.556,-56.64
1259.571,-56.8
1259.586,-56.69
1259.601,-56.52
1259.616,-56.53
1259.631,-56.88
1259.646,-56.95
1259.661,-56.82
1259.676,-56.77
1259.691,-56.78
1259.706,-56.82
1259.721,-56.92
1259.736,-56.86
1259.751,-56.42
1259.766,-56.33
1259.781,-56.54
1259.796,-56.67
1259.811,-56.5
1259.826,-56.49
1259.841,-56.55
1259.856,-56.63
1259.871,-56.83
1259.886,-56.78
1259.901,-56.58
1259.916,-56.61
1259.931,-56.77
1259.946,-56.86
1259.961,-56.85
1259.976,-56.73
1259.991,-56.76
1260.006,-56.79
1260.021,-57.13
1260.036,-56.96
1260.051,-56.66
1260.066,-56.47
1260.081,-56.69
1260.096,-56.9
1260.111,-56.79
1260.126,-56.65
1260.141,-56.59
1260.156,-56.68
1260.171,-56.97
1260.186,-57.15
1260.201,-56.87
1260.216,-56.74
1260.231,-56.84
1260.246,-57.08
1260.261,-57.02
1260.276,-56.91
1260.291,-56.77
1260.306,-56.83
1260.321,-57.04
1260.336,-56.97
1260.351,-56.62
1260.366,-56.53
1260.381,-56.7
1260.396,-56.73
1260.411,-56.73
1260.426,-56.58
1260.441,-56.5
1260.456,-56.66
1260.471,-56.96
1260.486,-57.17
1260.501,-56.91
1260.516,-56.84
1260.531,-56.78
1260.546,-56.95
1260.561,-57.0
1260.576,-56.91
1260.591,-56.53
1260.606,-56.51
1260.621,-56.74
1260.636,-56.72
1260.651,-56.6
1260.666,-56.46
1260.681,-56.42
1260.696,-56.63
1260.711,-56.91
1260.726,-56.59
1260.741,-56.34
1260.756,-56.48
1260.771,-56.84
1260.786,-56.8
1260.801,-56.58
1260.816,-56.46
1260.831,-56.4
1260.846,-56.79
1260.861,-56.96
1260.876,-56.72
1260.891,-56.44
1260.906,-56.6
1260.921,-56.78
1260.936,-56.88
1260.951,-56.64
1260.966,-56.43
1260.981,-56.82
1260.996,-56.86
1261.011,-57.09
1261.026,-56.7
1261.041,-56.68
1261.056,-56.64
1261.071,-57.0
1261.086,-57.06
1261.101,-56.64
1261.116,-56.59
1261.131,-56.55
1261.146,-56.89
1261.161,-56.78
1261.176,-56.62
1261.191,-56.27
1261.206,-56.34
1261.221,-56.64
1261.236,-56.46
1261.251,-56.35
1261.266,-56.14
1261.281,-56.4
1261.297,-56.44
1261.312,-56.64
1261.326,-56.5
1261.341,-56.29
1261.356,-56.64
1261.371,-56.87
1261.386,-56.93
1261.401,-56.59
1261.417,-56.67
1261.432,-56.78
1261.447,-57.2
1261.461,-57.26
1261.476,-56.97
1261.491,-56.9
1261.506,-56.89
1261.521,-57.18
1261.536,-57.12
1261.552,-57.05
1261.567,-56.71
1261.582,-56.88
1261.597,-57.05
1261.611,-57.08
1261.626,-56.98
1261.641,-56.78
1261.656,-57.1
1261.672,-57.06
1261.687,-57.31
1261.702,-56.94
1261.717,-56.71
1261.732,-57.06
1261.746,-57.35
1261.761,-57.53
1261.776,-57.1
1261.792,-57.22
1261.807,-57.1
1261.822,-57.62
1261.837,-57.61
1261.852,-57.11
1261.867,-56.74
1261.882,-56.94
1261.896,-57.26
1261.911,-57.05
1261.927,-56.89
1261.942,-56.64
1261.957,-56.9
1261.972,-57.17
1261.987,-57.0
1262.002,-56.79
1262.017,-56.73
1262.031,-56.99
1262.047,-57.14
1262.062,-57.25
1262.077,-56.91
1262.092,-57.08
1262.107,-57.18
1262.122,-57.57
1262.137,-57.51
1262.152,-57.09
1262.167,-57.06
1262.182,-57.3
1262.197,-57.58
1262.212,-57.31
1262.227,-57.11
1262.242,-57.03
1262.257,-57.35
1262.272,-57.55
1262.287,-57.47
1262.302,-57.25
1262.317,-57.11
1262.332,-57.4
1262.347,-57.75
1262.362,-57.52
1262.377,-57.08
1262.392,-57.09
1262.407,-57.27
1262.422,-57.61
1262.437,-57.23
1262.452,-56.93
1262.467,-56.67
1262.482,-56.95
1262.497,-56.98
1262.512,-56.79
1262.527,-56.56
1262.542,-56.5
1262.557,-56.63
1262.572,-56.91
1262.587,-56.93
1262.602,-56.76
1262.617,-56.76
1262.632,-57.01
1262.647,-57.18
1262.662,-56.98
1262.677,-56.85
1262.692,-56.81
1262.707,-57.22
1262.722,-57.6
1262.737,-57.38
1262.752,-57.11
1262.767,-57.12
1262.782,-57.28
1262.797,-57.37
1262.812,-57.42
1262.827,-56.93
1262.842,-57.15
1262.857,-57.36
1262.872,-57.7
1262.887,-57.46
1262.902,-57.15
1262.917,-57.17
1262.932,-57.35
1262.947,-57.5
1262.962,-57.2
1262.977,-57.01
1262.992,-56.88
1263.007,-57.27
1263.022,-57.22
1263.037,-57.17
1263.052,-56.92
1263.067,-56.95
1263.082,-57.3
1263.097,-56.95
1263.112,-57.03
1263.127,-56.69
1263.142,-56.84
1263.157,-57.11
1263.172,-57.47
1263.187,-57.23
1263.202,-57.0
1263.217,-57.4
1263.232,-57.5
1263.247,-57.92
1263.262,-57.52
1263.277,-57.42
1263.292,-57.21
1263.307,-57.59
1263.322,-57.63
1263.337,-57.32
1263.352,-57.2
1263.367,-57.12
1263.382,-57.68
1263.397,-57.4
1263.412,-57.41
1263.427,-57.06
1263.442,-57.32
1263.457,-57.41
1263.472,-57.52
1263.487,-57.35
1263.502,-57.01
1263.517,-57.37
1263.532,-57.32
1263.547,-57.61
1263.562,-57.31
1263.577,-57.26
1263.592,-57.32
1263.607,-57.19
1263.622,-57.31
1263.637,-57.0
1263.652,-57.04
1263.667,-57.17
1263.682,-57.51
1263.697,-57.49
1263.712,-57.17
1263.727,-57.06
1263.742,-57.13
1263.757,-57.39
1263.772,-57.04
1263.787,-57.04
1263.802,-56.79
1263.817,-56.92
1263.832,-57.15
1263.847,-56.78
1263.862,-56.73
1263.877,-56.53
1263.892,-56.83
1263.907,-56.79
1263.922,-56.74
1263.937,-56.62
1263.952,-56.63
1263.967,-57.01
1263.982,-56.94
1263.997,-57.13
1264.012,-56.72
1264.027,-56.88
1264.042,-56.97
1264.057,-56.91
1264.072,-56.84
1264.087,-56.58
1264.102,-56.92
1264.117,-56.82
1264.132,-57.1
1264.147,-56.78
1264.162,-56.61
1264.177,-56.62
1264.192,-56.77
1264.207,-56.92
1264.222,-56.58
1264.237,-56.62
1264.252,-56.41
1264.267,-56.78
1264.282,-56.74
1264.297,-56.71
1264.312,-56.62
1264.327,-56.58
1264.342,-56.85
1264.357,-56.81
1264.372,-56.73
1264.387,-56.3
1264.402,-56.47
1264.417,-56.67
1264.432,-56.58
1264.447,-56.4
1264.462,-56.18
1264.477,-56.34
1264.492,-56.45
1264.507,-56.71
1264.522,-56.37
1264.537,-56.33
1264.552,-56.45
1264.567,-56.59
1264.582,-56.71
1264.597,-56.43
1264.612,-56.47
1264.627,-56.7
1264.642,-57.05
1264.657,-56.96
1264.672,-56.67
1264.687,-56.64
1264.702,-56.71
1264.717,-56.97
1264.732,-56.72
1264.747,-56.61
1264.762,-56.32
1264.777,-56.7
1264.792,-56.77
1264.807,-56.69
1264.822,-56.56
1264.837,-56.44
1264.852,-56.82
1264.867,-56.73
1264.882,-56.65
1264.897,-56.35
1264.912,-56.42
1264.927,-56.76
1264.942,-56.74
1264.957,-56.66
1264.972,-56.33
1264.987,-56.52
1265.002,-56.65
1265.017,-56.96
1265.032,-56.82
1265.047,-56.62
1265.062,-56.81
1265.077,-56.88
1265.092,-57.09
1265.107,-56.67
1265.122,-56.72
1265.137,-56.73
1265.152,-57.07
1265.167,-57.08
1265.182,-56.8
1265.197,-56.76
1265.212,-56.62
1265.227,-57.0
1265.242,-56.72
1265.257,-56.72
1265.272,-56.61
1265.287,-56.8
1265.302,-57.12
1265.317,-56.86
1265.332,-56.87
1265.347,-56.66
1265.362,-56.83
1265.377,-56.93
1265.392,-56.97
1265.407,-56.79
1265.422,-56.55
1265.437,-56.82
1265.452,-56.84
1265.467,-56.99
1265.482,-56.76
1265.497,-56.72
1265.512,-56.71
1265.527,-56.72
1265.542,-56.92
1265.557,-56.52
1265.572,-56.65
1265.587,-56.7
1265.602,-57.0
1265.617,-56.93
1265.632,-56.7
1265.647,-56.63
1265.662,-56.74
1265.677,-57.05
1265.692,-56.78
1265.707,-56.65
1265.722,-56.33
1265.737,-56.67
1265.752,-56.61
1265.767,-56.58
1265.782,-56.57
1265.797,-56.51
1265.812,-56.84
1265.827,-56.76
1265.842,-56.81
1265.857,-56.46
1265.872,-56.6
1265.887,-56.86
1265.902,-56.92
1265.917,-56.84
1265.932,-56.55
1265.947,-56.88
1265.962,-56.95
1265.977,-57.2
1265.992,-56.98
1266.007,-56.82
1266.022,-56.88
1266.037,-56.85
1266.052,-56.79
1266.067,-56.52
1266.082,-56.57
1266.097,-56.64
1266.112,-56.91
1266.127,-56.93
1266.142,-56.74
1266.157,-56.71
1266.172,-56.84
1266.187,-57.03
1266.202,-56.81
1266.217,-56.79
1266.232,-56.46
1266.247,-56.78
1266.262,-56.98
1266.277,-56.71
1266.292,-56.59
1266.307,-56.41
1266.322,-56.76
1266.337,-56.67
1266.352,-56.74
1266.367,-56.48
1266.382,-56.42
1266.397,-56.66
1266.412,-56.68
1266.427,-56.72
1266.442,-56.44
1266.457,-56.53
1266.472,-56.64
1266.487,-56.62
1266.502,-56.65
1266.517,-56.37
1266.532,-56.6
1266.547,-56.57
1266.562,-56.8
1266.577,-56.55
1266.592,-56.53
1266.607,-56.48
1266.622,-56.46
1266.637,-56.61
1266.652,-56.43
1266.667,-56.57
1266.682,-56.57
1266.697,-56.81
1266.712,-56.72
1266.727,-56.77
1266.742,-56.67
1266.757,-56.75
1266.772,-57.06
1266.787,-56.75
1266.802,-56.65
1266.817,-56.62
1266.832,-56.95
1266.847,-57.03
1266.862,-57.07
1266.877,-57.01
1266.892,-57.11
1266.907,-57.39
1266.922,-57.47
1266.937,-57.52
1266.952,-57.37
1266.967,-57.46
1266.982,-57.52
1266.997,-57.52
1267.012,-57.54
1267.027,-57.48
1267.042,-57.45
1267.057,-57.53
1267.072,-57.57
1267.087,-57.51
1267.102,-57.21
1267.117,-57.21
1267.132,-57.26
1267.147,-57.25
1267.162,-57.2
1267.177,-57.03
1267.192,-57.1
1267.207,-57.0
1267.222,-57.05
1267.237,-57.47
1267.252,-57.45
1267.267,-57.3
1267.282,-57.37
1267.297,-57.47
1267.312,-57.39
1267.327,-57.37
1267.342,-57.35
1267.357,-57.25
1267.372,-57.46
1267.387,-57.49
1267.402,-57.54
1267.417,-57.35
1267.432,-57.36
1267.447,-57.38
1267.462,-57.44
1267.477,-57.52
1267.492,-57.39
1267.507,-57.42
1267.522,-57.51
1267.537,-57.56
1267.552,-57.64
1267.567,-57.33
1267.582,-57.41
1267.597,-57.47
1267.612,-57.39
1267.627,-57.44
1267.642,-57.22
1267.657,-57.25
1267.672,-57.16
1267.687,-57.12
1267.702,-56.73
1267.717,-56.71
1267.732,-56.72
1267.747,-56.67
1267.762,-56.73
1267.777,-56.44
1267.792,-56.53
1267.807,-56.56
1267.822,-56.54
1267.837,-56.42
1267.852,-56.12
1267.867,-56.15
1267.882,-56.23
1267.897,-56.26
1267.912,-56.0
1267.927,-56.03
1267.942,-55.97
1267.957,-55.93
1267.972,-56.1
1267.987,-55.79
1268.002,-55.84
1268.017,-55.79
1268.032,-55.68
1268.047,-55.77
1268.062,-55.89
1268.077,-55.9
1268.092,-55.93
1268.107,-56.21
1268.122,-56.14
1268.137,-56.19
1268.152,-56.13
1268.167,-55.97
1268.182,-56.25
1268.197,-56.21
1268.212,-56.34
1268.227,-56.32
1268.242,-56.3
1268.257,-56.34
1268.272,-56.42
1268.287,-56.43
1268.302,-56.31
1268.317,-56.59
1268.332,-56.39
1268.347,-56.45
1268.362,-56.44
1268.377,-56.34
1268.392,-56.55
1268.407,-56.43
1268.422,-56.59
1268.437,-56.51
1268.452,-56.71
1268.467,-56.94
1268.482,-56.87
1268.497,-56.95
1268.512,-56.75
1268.527,-57.04
1268.542,-56.93
1268.557,-57.02
1268.572,-56.99
1268.587,-57.01
1268.602,-57.19
1268.617,-57.13
1268.632,-57.16
1268.647,-57.15
1268.662,-57.28
1268.677,-57.15
1268.692,-57.14
1268.707,-57.17
1268.722,-57.06
1268.737,-57.21
1268.752,-57.22
1268.767,-57.25
1268.782,-57.22
1268.797,-57.21
1268.812,-57.19
1268.827,-57.19
1268.842,-57.28
1268.857,-57.42
1268.872,-57.4
1268.887,-57.28
1268.902,-57.23
1268.917,-57.42
1268.932,-57.13
1268.947,-57.27
1268.962,-57.23
1268.977,-57.1
1268.992,-57.26
1269.007,-57.0
1269.022,-57.07
1269.037,-57.04
1269.052,-57.18
1269.067,-56.87
1269.082,-56.77
1269.097,-56.73
1269.112,-56.73
1269.127,-56.92
1269.142,-56.56
1269.157,-56.69
1269.172,-56.69
1269.188,-56.71
1269.202,-56.72
1269.217,-56.5
1269.232,-56.55
1269.247,-56.44
1269.262,-56.45
1269.277,-56.31
1269.292,-56.4
1269.307,-56.35
1269.323,-56.14
1269.338,-56.35
1269.352,-56.22
1269.367,-56.36
1269.382,-56.3
1269.397,-56.18
1269.412,-56.24
1269.427,-56.26
1269.443,-56.38
1269.458,-56.32
1269.473,-56.22
1269.487,-56.19
1269.502,-56.24
1269.517,-56.42
1269.532,-56.26
1269.547,-56.46
1269.563,-56.2
1269.578,-56.38
1269.593,-56.38
1269.608,-56.23
1269.623,-56.32
1269.637,-56.23
1269.652,-56.37
1269.667,-56.31
1269.682,-56.45
1269.698,-56.51
1269.713,-56.59
1269.728,-56.77
1269.743,-56.68
1269.758,-56.86
1269.772,-56.68
1269.787,-56.96
1269.802,-57.0
1269.818,-57.06
1269.833,-57.24
1269.848,-57.0
1269.863,-57.16
1269.878,-57.09
1269.893,-57.27
1269.908,-57.09
1269.922,-56.98
1269.938,-57.11
1269.953,-56.98
1269.968,-57.12
1269.983,-56.91
1269.998,-56.98
1270.013,-57.04
1270.028,-57.03
1270.043,-57.06
1270.058,-56.82
1270.073,-57.03
1270.088,-57.1
1270.103,-57.11
1270.118,-56.96
1270.133,-56.65
1270.148,-57.1
1270.163,-57.01
1270.178,-57.21
1270.193,-56.99
1270.208,-56.89
1270.223,-57.06
1270.238,-56.97
1270.253,-57.1
1270.268,-56.84
1270.283,-56.9
1270.298,-56.72
1270.313,-56.7
1270.328,-56.79
1270.343,-56.57
1270.358,-56.76
1270.373,-56.57
1270.388,-56.78
1270.403,-56.78
1270.418,-56.65
1270.433,-56.65
1270.448,-56.45
1270.463,-56.54
1270.478,-56.43
1270.493,-56.43
1270.508,-56.4
1270.523,-56.52
1270.538,-56.53
1270.553,-56.31
1270.568,-56.5
1270.583,-56.38
1270.598,-56.54
1270.613,-56.49
1270.628,-56.34
1270.643,-56.5
1270.658,-56.57
1270.673,-56.62
1270.688,-56.49
1270.703,-56.32
1270.718,-56.42
1270.733,-56.54
1270.748,-56.5
1270.763,-56.38
1270.778,-56.52
1270.793,-56.34
1270.808,-56.42
1270.823,-56.46
1270.838,-56.36
1270.853,-56.61
1270.868,-56.45
1270.883,-56.67
1270.898,-56.51
1270.913,-56.56
1270.928,-56.73
1270.943,-56.8
1270.958,-56.87
1270.973,-56.83
1270.988,-57.02
1271.003,-56.71
1271.018,-56.95
1271.033,-56.93
1271.048,-56.96
1271.063,-57.3
1271.078,-57.09
1271.093,-57.27
1271.108,-57.29
1271.123,-57.34
1271.138,-57.45
1271.153,-57.21
1271.168,-57.32
1271.183,-57.16
1271.198,-57.33
1271.213,-57.18
1271.228,-57.22
1271.243,-57.24
1271.258,-57.07
1271.273,-57.13
1271.288,-57.04
1271.303,-57.27
1271.318,-57.22
1271.333,-57.26
1271.348,-57.24
1271.363,-57.26
1271.378,-57.42
1271.393,-57.12
1271.408,-57.19
1271.423,-57.16
1271.438,-57.23
1271.453,-57.36
1271.468,-57.2
1271.483,-57.29
1271.498,-57.24
1271.513,-57.39
1271.528,-56.99
1271.543,-56.91
1271.558,-57.02
1271.573,-56.81
1271.588,-56.98
1271.603,-56.68
1271.618,-56.73
1271.633,-56.8
1271.648,-56.73
1271.663,-56.6
1271.678,-56.33
1271.693,-56.53
1271.708,-56.59
1271.723,-56.68
1271.738,-56.41
1271.753,-56.25
1271.768,-56.3
1271.783,-56.3
1271.798,-56.53
1271.813,-56.17
1271.828,-56.07
1271.843,-56.08
1271.858,-56.02
1271.873,-56.05
1271.888,-55.72
1271.903,-55.71
1271.918,-55.75
1271.933,-55.71
1271.948,-55.61
1271.963,-55.49
1271.978,-55.49
1271.993,-55.47
1272.008,-55.72
1272.023,-55.47
1272.038,-55.45
1272.053,-55.55
1272.068,-55.43
1272.083,-55.61
1272.098,-55.39
1272.113,-55.31
1272.128,-55.41
1272.143,-55.49
1272.158,-55.67
1272.173,-55.4
1272.188,-55.38
1272.203,-55.52
1272.218,-55.69
1272.233,-55.58
1272.248,-55.43
1272.263,-55.52
1272.278,-55.79
1272.293,-55.95
1272.308,-55.82
1272.323,-55.67
1272.338,-55.79
1272.353,-56.09
1272.368,-56.09
1272.383,-55.9
1272.398,-55.95
1272.413,-56.1
1272.428,-56.3
1272.443,-56.24
1272.458,-56.02
1272.473,-56.02
1272.488,-56.29
1272.503,-56.47
1272.518,-56.39
1272.533,-56.28
1272.548,-56.35
1272.563,-56.68
1272.578,-57.01
1272.593,-56.73
1272.608,-56.59
1272.623,-56.75
1272.638,-57.06
1272.653,-57.2
1272.668,-56.91
1272.683,-56.97
1272.698,-57.04
1272.713,-57.34
1272.728,-57.3
1272.743,-57.01
1272.758,-57.08
1272.773,-57.55
1272.788,-57.65
1272.803,-57.35
1272.818,-57.26
1272.833,-57.42
1272.848,-57.86
1272.863,-57.76
1272.878,-57.64
1272.893,-57.61
1272.908,-57.76
1272.923,-58.34
1272.938,-58.11
1272.953,-57.82
1272.968,-57.85
1272.983,-58.11
1272.998,-58.55
1273.013,-58.07
1273.028,-57.97
1273.043,-58.04
1273.058,-58.33
1273.073,-58.52
1273.088,-58.36
1273.103,-58.06
1273.118,-58.21
1273.133,-58.47
1273.148,-58.35
1273.163,-58.04
1273.178,-57.85
1273.193,-58.03
1273.208,-58.21
1273.223,-57.8
1273.238,-57.65
1273.253,-57.63
1273.268,-57.78
1273.283,-57.82
1273.298,-57.4
1273.313,-57.12
1273.328,-57.33
1273.343,-57.62
1273.358,-57.47
1273.373,-57.22
1273.388,-57.06
1273.403,-57.19
1273.418,-57.33
1273.433,-57.27
1273.448,-56.92
1273.463,-56.83
1273.478,-57.08
1273.493,-57.12
1273.508,-56.83
1273.523,-56.45
1273.538,-56.46
1273.553,-56.8
1273.568,-56.71
1273.583,-56.3
1273.598,-56.27
1273.613,-56.33
1273.628,-56.55
1273.643,-56.47
1273.658,-56.1
1273.673,-56.24
1273.688,-56.31
1273.703,-56.51
1273.718,-56.3
1273.733,-56.01
1273.748,-55.95
1273.763,-56.17
1273.778,-56.18
1273.793,-55.94
1273.808,-55.79
1273.823,-55.79
1273.838,-55.98
1273.853,-55.96
1273.868,-55.87
1273.883,-55.7
1273.898,-55.74
1273.913,-56.07
1273.928,-55.78
1273.943,-55.7
1273.958,-55.84
1273.973,-55.88
1273.988,-56.06
1274.003,-55.82
1274.018,-55.78
1274.033,-55.96
1274.048,-56.14
1274.063,-56.12
1274.078,-56.02
1274.093,-55.77
1274.108,-56.08
1274.123,-56.13
1274.138,-56.1
1274.153,-56.02
1274.168,-55.91
1274.183,-56.21
1274.198,-56.49
1274.213,-56.26
1274.228,-56.28
1274.243,-56.27
1274.258,-56.67
1274.273,-56.94
1274.288,-56.71
1274.303,-56.66
1274.318,-56.83
1274.333,-57.05
1274.348,-56.97
1274.363,-56.77
1274.378,-56.72
1274.393,-56.98
1274.408,-57.16
1274.423,-57.06
1274.438,-56.81
1274.453,-56.8
1274.468,-57.2
1274.483,-57.3
1274.498,-57.11
1274.513,-57.02
1274.528,-57.25
1274.543,-57.71
1274.558,-57.72
1274.573,-57.37
1274.588,-57.43
1274.603,-57.69
1274.618,-58.06
1274.633,-58.05
1274.648,-57.63
1274.663,-57.79
1274.678,-58.03
1274.693,-58.12
1274.708,-58.03
1274.723,-57.85
1274.738,-58.01
1274.753,-58.56
1274.768,-58.35
1274.783,-58.0
1274.798,-57.86
1274.813,-58.05
1274.828,-58.74
1274.843,-58.42
1274.858,-58.11
1274.873,-58.07
1274.888,-58.49
1274.903,-58.9
1274.918,-58.12
1274.933,-58.05
1274.948,-58.19
1274.963,-58.36
1274.978,-58.43
1274.993,-58.01
1275.008,-57.81
1275.023,-58.01
1275.038,-58.17
1275.053,-57.94
1275.068,-57.76
1275.083,-57.61
1275.098,-58.0
1275.113,-57.98
1275.128,-57.71
1275.143,-57.43
1275.158,-57.42
1275.173,-57.7
1275.188,-57.69
1275.203,-57.31
1275.218,-57.14
1275.233,-57.09
1275.248,-57.35
1275.263,-57.13
1275.278,-56.7
1275.293,-56.48
1275.308,-56.59
1275.323,-56.84
1275.338,-56.82
1275.353,-56.43
1275.368,-56.4
1275.383,-56.48
1275.398,-56.58
1275.413,-56.43
1275.428,-56.17
1275.443,-56.13
1275.458,-56.34
1275.473,-56.41
1275.488,-56.11
1275.503,-55.96
1275.518,-55.98
1275.533,-56.14
1275.548,-56.05
1275.563,-55.78
1275.578,-55.74
1275.593,-55.84
1275.608,-55.88
1275.623,-55.79
1275.638,-55.49
1275.653,-55.63
1275.668,-55.78
1275.683,-55.75
1275.698,-55.66
1275.713,-55.39
1275.728,-55.36
1275.743,-55.44
1275.758,-55.37
1275.773,-55.28
1275.788,-55.2
1275.803,-55.28
1275.818,-55.39
1275.833,-55.33
1275.848,-55.24
1275.863,-55.28
1275.878,-55.26
1275.893,-55.32
1275.908,-55.18
1275.923,-55.19
1275.938,-55.26
1275.953,-55.39
1275.968,-55.42
1275.983,-55.38
1275.998,-55.39
1276.013,-55.55
1276.028,-55.58
1276.043,-55.52
1276.058,-55.44
1276.073,-55.39
1276.088,-55.66
1276.103,-55.75
1276.118,-55.54
1276.133,-55.54
1276.148,-55.64
1276.163,-55.9
1276.178,-55.93
1276.193,-55.7
1276.208,-55.68
1276.223,-55.86
1276.238,-56.14
1276.253,-56.17
1276.268,-55.96
1276.283,-55.99
1276.298,-56.3
1276.313,-56.48
1276.328,-56.31
1276.343,-56.03
1276.358,-56.08
1276.373,-56.41
1276.388,-56.58
1276.403,-56.41
1276.418,-56.29
1276.433,-56.45
1276.448,-56.83
1276.463,-57.06
1276.478,-56.7
1276.493,-56.65
1276.508,-56.85
1276.523,-57.11
1276.538,-57.29
1276.553,-56.93
1276.568,-57.07
1276.583,-57.41
1276.598,-57.53
1276.613,-57.11
1276.628,-56.97
1276.643,-57.21
1276.658,-57.48
1276.673,-57.33
1276.688,-56.89
1276.703,-56.81
1276.718,-56.97
1276.733,-57.44
1276.748,-57.25
1276.763,-56.96
1276.778,-57.0
1276.793,-57.23
1276.808,-57.48
1276.823,-57.28
1276.838,-56.98
1276.853,-57.12
1276.868,-57.35
1276.883,-57.52
1276.898,-57.29
1276.913,-57.35
1276.928,-57.65
1276.943,-57.91
1276.958,-57.72
1276.973,-57.26
1276.988,-57.34
1277.003,-57.52
1277.018,-57.52
1277.033,-57.36
1277.048,-57.09
1277.063,-57.41
1277.078,-57.48
1277.093,-57.38
1277.108,-56.99
1277.123,-56.95
1277.138,-57.25
1277.153,-57.12
1277.168,-56.85
1277.183,-56.6
1277.198,-56.75
1277.214,-57.06
1277.228,-56.84
1277.243,-56.73
1277.258,-56.46
1277.273,-56.71
1277.288,-56.9
1277.303,-56.63
1277.318,-56.5
1277.333,-56.34
1277.349,-56.71
1277.364,-56.82
1277.378,-56.58
1277.393,-56.44
1277.408,-56.37
1277.423,-56.71
1277.438,-56.56
1277.453,-56.35
1277.469,-56.28
1277.484,-56.38
1277.499,-56.64
1277.514,-56.42
1277.528,-56.3
1277.543,-56.19
1277.558,-56.45
1277.573,-56.59
1277.589,-56.26
1277.604,-56.14
1277.619,-56.53
1277.634,-56.54
1277.649,-56.55
1277.663,-56.14
1277.678,-56.2
1277.693,-56.52
1277.708,-56.59
1277.724,-56.54
1277.739,-56.22
1277.754,-56.42
1277.769,-56.57
1277.784,-56.57
1277.799,-56.48
1277.813,-56.28
1277.828,-56.53
1277.844,-56.68
1277.859,-56.59
1277.874,-56.43
1277.889,-56.34
1277.904,-56.65
1277.919,-56.46
1277.934,-56.3
1277.948,-56.13
1277.964,-56.16
1277.979,-56.54
1277.994,-56.4
1278.009,-56.26
1278.024,-56.23
1278.039,-56.44
1278.054,-56.76
1278.069,-56.5
1278.084,-56.49
1278.099,-56.62
1278.114,-56.74
1278.129,-56.8
1278.144,-56.58
1278.159,-56.65
1278.174,-56.93
1278.189,-56.87
1278.204,-56.82
1278.219,-56.49
1278.234,-56.78
1278.249,-56.92
1278.264,-56.82
1278.279,-56.68
1278.294,-56.46
1278.309,-56.74
1278.324,-56.87
1278.339,-56.85
1278.354,-56.65
1278.369,-56.59
1278.384,-56.91
1278.399,-56.9
1278.414,-56.93
1278.429,-56.7
1278.444,-56.73
1278.459,-56.93
1278.474,-56.72
1278.489,-56.61
1278.504,-56.74
1278.519,-56.93
1278.534,-57.12
1278.549,-56.83
1278.564,-56.87
1278.579,-56.92
1278.594,-56.76
1278.609,-56.81
1278.624,-56.45
1278.639,-56.68
1278.654,-56.73
1278.669,-56.72
1278.684,-56.68
1278.699,-56.45
1278.714,-56.61
1278.729,-56.78
1278.744,-56.77
1278.759,-56.56
1278.774,-56.49
1278.789,-56.84
1278.804,-56.77
1278.819,-56.82
1278.834,-56.69
1278.849,-56.62
1278.864,-56.92
1278.879,-56.72
1278.894,-56.71
1278.909,-56.68
1278.924,-56.78
1278.939,-56.93
1278.954,-56.74
1278.969,-56.81
1278.984,-56.78
1278.999,-57.03
1279.014,-57.15
1279.029,-56.9
1279.044,-56.8
1279.059,-56.81
1279.074,-57.11
1279.089,-57.06
1279.104,-56.72
1279.119,-56.84
1279.134,-56.94
1279.149,-56.89
1279.164,-56.85
1279.179,-56.65
1279.194,-57.03
1279.209,-56.98
1279.224,-57.03
1279.239,-56.73
1279.254,-56.5
1279.269,-56.85
1279.284,-56.79
1279.299,-56.86
1279.314,-56.67
1279.329,-56.57
1279.344,-56.94
1279.359,-56.79
1279.374,-56.81
1279.389,-56.47
1279.404,-56.57
1279.419,-56.73
1279.434,-56.5
1279.449,-56.54
1279.464,-56.63
1279.479,-56.88
1279.494,-57.02
1279.509,-56.62
1279.524,-56.5
1279.539,-56.58
1279.554,-56.86
1279.569,-56.7
1279.584,-56.3
1279.599,-56.56
1279.614,-56.72
1279.629,-57.13
1279.644,-56.8
1279.659,-56.52
1279.674,-56.88
1279.689,-57.07
1279.704,-57.26
1279.719,-56.98
1279.734,-56.76
1279.749,-57.12
1279.764,-57.26
1279.779,-57.19
1279.794,-56.75
1279.809,-56.88
1279.824,-57.09
1279.839,-57.04
1279.854,-56.89
1279.869,-56.61
1279.884,-56.65
1279.899,-56.93
1279.914,-56.65
1279.929,-56.56
1279.944,-56.39
1279.959,-56.71
1279.974,-56.7
1279.989,-56.38
1280.004,-56.23
1280.019,-56.33
1280.034,-56.65
1280.049,-56.64
1280.064,-56.44
1280.079,-56.32
1280.094,-56.51
1280.109,-56.81
1280.124,-56.63
1280.139,-56.36
1280.154,-56.66
1280.169,-56.64
1280.184,-56.8
1280.199,-56.36
1280.214,-56.26
1280.229,-56.63
1280.244,-56.77
1280.259,-56.89
1280.274,-56.54
1280.289,-56.62
1280.304,-56.91
1280.319,-56.77
1280.334,-56.75
1280.349,-56.49
1280.364,-56.72
1280.379,-56.85
1280.394,-56.93
1280.409,-56.95
1280.424,-56.73
1280.439,-57.19
1280.454,-57.23
1280.469,-56.95
1280.484,-56.87
1280.499,-56.73
1280.514,-57.08
1280.529,-57.0
1280.544,-56.77
1280.559,-56.66
1280.574,-56.76
1280.589,-57.02
1280.604,-56.81
1280.619,-56.68
1280.634,-56.75
1280.649,-56.71
1280.664,-57.0
1280.679,-56.67
1280.694,-56.62
1280.709,-56.78
1280.724,-56.7
1280.739,-56.79
1280.754,-56.47
1280.769,-56.63
1280.784,-56.8
1280.799,-56.8
1280.814,-56.63
1280.829,-56.4
1280.844,-56.61
1280.859,-56.75
1280.874,-56.67
1280.889,-56.8
1280.904,-56.59
1280.919,-56.94
1280.934,-56.86
1280.949,-56.87
1280.964,-56.75
1280.979,-56.72
1280.994,-57.08
1281.009,-57.02
1281.024,-56.78
1281.039,-56.67
1281.054,-56.81
1281.069,-57.07
1281.084,-56.82
1281.099,-56.68
1281.114,-56.7
1281.129,-56.89
1281.144,-57.0
1281.159,-56.68
1281.174,-56.77
1281.189,-56.82
1281.204,-56.89
1281.219,-57.12
1281.234,-56.7
1281.249,-56.84
1281.264,-56.95
1281.279,-56.93
1281.294,-56.84
1281.309,-56.51
1281.324,-56.82
1281.339,-56.92
1281.354,-56.93
1281.369,-56.73
1281.384,-56.68
1281.399,-56.96
1281.414,-56.68
1281.429,-56.8
1281.444,-56.68
1281.459,-56.7
1281.474,-56.94
1281.489,-56.64
1281.504,-56.73
1281.519,-56.65
1281.534,-56.8
1281.549,-56.83
1281.564,-56.7
1281.579,-56.76
1281.594,-56.79
1281.609,-56.74
1281.624,-56.85
1281.639,-56.49
1281.654,-56.61
1281.669,-56.69
1281.684,-56.72
1281.699,-56.76
1281.714,-56.32
1281.729,-56.6
1281.744,-56.72
1281.759,-56.68
1281.774,-56.59
1281.789,-56.38
1281.804,-56.73
1281.819,-56.72
1281.834,-56.71
1281.849,-56.71
1281.864,-56.77
1281.879,-57.18
1281.894,-56.87
1281.909,-57.0
1281.924,-57.01
1281.939,-57.0
1281.954,-57.04
1281.969,-56.84
1281.984,-56.92
1281.999,-56.97
1282.014,-56.93
1282.029,-56.93
1282.044,-56.75
1282.059,-56.66
1282.074,-56.6
1282.089,-56.63
1282.104,-56.6
1282.119,-56.55
1282.134,-56.41
1282.149,-56.53
1282.164,-56.45
1282.179,-56.45
1282.194,-56.46
1282.209,-56.49
1282.224,-56.55
1282.239,-56.53
1282.254,-56.52
1282.269,-56.49
1282.284,-56.46
1282.299,-56.56
1282.314,-56.59
1282.329,-56.55
1282.344,-56.64
1282.359,-56.6
1282.374,-56.6
1282.389,-56.54
1282.404,-56.49
1282.419,-56.71
1282.434,-56.61
1282.449,-56.46
1282.464,-56.6
1282.479,-56.61
1282.494,-56.74
1282.509,-56.61
1282.524,-56.52
1282.539,-56.57
1282.554,-56.48
1282.569,-56.6
1282.584,-56.49
1282.599,-56.53
1282.614,-56.63
1282.629,-56.51
1282.644,-56.49
1282.659,-56.43
1282.674,-56.46
1282.689,-56.54
1282.704,-56.4
1282.719,-56.57
1282.734,-56.39
1282.749,-56.45
1282.764,-56.52
1282.779,-56.36
1282.794,-56.53
1282.809,-56.44
1282.824,-56.58
1282.839,-56.65
1282.854,-56.56
1282.869,-56.67
1282.884,-56.4
1282.899,-56.4
1282.914,-56.51
1282.929,-56.29
1282.944,-56.45
1282.959,-56.4
1282.974,-56.44
1282.989,-56.37
1283.004,-56.25
1283.019,-56.37
1283.034,-56.36
1283.049,-56.34
1283.064,-56.53
1283.079,-56.52
1283.094,-56.59
1283.109,-56.6
1283.124,-56.46
1283.139,-56.6
1283.154,-56.34
1283.169,-56.51
1283.184,-56.46
1283.199,-56.38
1283.214,-56.65
1283.229,-56.41
1283.244,-56.45
1283.259,-56.45
1283.274,-56.43
1283.289,-56.64
1283.304,-56.48
1283.319,-56.56
1283.334,-56.44
1283.349,-56.33
1283.364,-56.43
1283.379,-56.35
1283.394,-56.51
1283.409,-56.52
1283.424,-56.56
1283.439,-56.54
1283.454,-56.58
1283.469,-56.5
1283.484,-56.49
1283.499,-56.29
1283.514,-56.44
1283.529,-56.31
1283.544,-56.25
1283.559,-56.49
1283.574,-56.3
1283.589,-56.3
1283.604,-56.08
1283.619,-56.19
1283.634,-56.29
1283.649,-56.26
1283.664,-56.4
1283.679,-56.25
1283.694,-56.31
1283.709,-56.26
1283.724,-56.24
1283.739,-56.49
1283.754,-56.32
1283.769,-56.47
1283.784,-56.44
1283.799,-56.39
1283.814,-56.5
1283.829,-56.23
1283.844,-56.21
1283.859,-56.32
1283.874,-56.3
1283.889,-56.24
1283.904,-56.24
1283.919,-56.35
1283.934,-56.45
1283.949,-56.38
1283.964,-56.34
1283.979,-56.31
1283.994,-56.52
1284.009,-56.73
1284.024,-56.65
1284.039,-56.55
1284.054,-56.69
1284.069,-56.82
1284.084,-56.69
1284.099,-56.44
1284.114,-56.44
1284.129,-56.49
1284.144,-56.54
1284.159,-56.52
1284.174,-56.36
1284.189,-56.63
1284.204,-56.57
1284.219,-56.55
1284.234,-56.46
1284.249,-56.44
1284.264,-56.68
1284.279,-56.61
1284.294,-56.56
1284.309,-56.48
1284.324,-56.49
1284.339,-56.78
1284.354,-56.76
1284.369,-56.72
1284.384,-56.72
1284.399,-56.75
1284.414,-56.9
1284.429,-56.54
1284.444,-56.46
1284.459,-56.5
1284.474,-56.57
1284.489,-56.49
1284.504,-56.43
1284.519,-56.43
1284.534,-56.62
1284.549,-56.71
1284.564,-56.57
1284.579,-56.47
1284.594,-56.62
1284.609,-57.06
1284.624,-57.02
1284.639,-56.92
1284.654,-56.87
1284.669,-56.97
1284.684,-57.23
1284.699,-56.86
1284.714,-56.94
1284.729,-56.87
1284.744,-56.86
1284.759,-57.04
1284.774,-56.64
1284.789,-56.75
1284.804,-56.76
1284.819,-56.67
1284.834,-56.8
1284.849,-56.7
1284.864,-56.84
1284.879,-56.71
1284.894,-56.75
1284.909,-56.83
1284.924,-56.66
1284.939,-56.72
1284.954,-56.68
1284.969,-56.82
1284.984,-56.77
1284.999,-56.78
1285.014,-56.75
1285.029,-56.61
1285.044,-56.57
1285.059,-56.66
1285.074,-56.4
1285.089,-56.6
1285.104,-56.57
1285.119,-56.49
1285.134,-56.71
1285.149,-56.49
1285.164,-56.7
1285.179,-56.69
1285.194,-56.56
1285.209,-56.88
1285.224,-56.73
1285.24,-56.75
1285.255,-56.82
1285.269,-56.63
1285.284,-56.77
1285.299,-56.56
1285.314,-56.65
1285.329,-56.59
1285.344,-56.5
1285.359,-56.7
1285.375,-56.46
1285.39,-56.43
1285.404,-56.39
1285.419,-56.35
1285.434,-56.46
1285.449,-56.39
1285.464,-56.51
1285.479,-56.5
1285.495,-56.44
1285.51,-56.55
1285.525,-56.43
1285.54,-56.43
1285.554,-56.66
1285.569,-56.64
1285.584,-56.71
1285.599,-56.66
1285.615,-56.62
1285.63,-56.5
1285.645,-56.3
1285.66,-56.44
1285.675,-56.32
1285.689,-56.25
1285.704,-56.44
1285.719,-56.21
1285.734,-56.4
1285.75,-56.33
1285.765,-56.24
1285.78,-56.36
1285.795,-56.27
1285.81,-56.49
1285.825,-56.44
1285.839,-56.52
1285.854,-56.59
1285.87,-56.43
1285.885,-56.57
1285.9,-56.51
1285.915,-56.67
1285.93,-56.6
1285.945,-56.43
1285.96,-56.58
1285.974,-56.32
1285.99,-56.32
1286.005,-56.29
1286.02,-56.13
1286.035,-56.24
1286.05,-56.25
1286.065,-56.15
1286.08,-56.47
1286.095,-56.22
1286.11,-56.43
1286.125,-56.48
1286.14,-56.39
1286.155,-56.66
1286.17,-56.49
1286.185,-56.67
1286.2,-56.56
1286.215,-56.39
1286.23,-56.46
1286.245,-56.28
1286.26,-56.45
1286.275,-56.48
1286.29,-56.31
1286.305,-56.54
1286.32,-56.39
1286.335,-56.42
1286.35,-56.38
1286.365,-56.37
1286.38,-56.41
1286.395,-56.42
1286.41,-56.56
1286.425,-56.68
1286.44,-56.69
1286.455,-56.8
1286.47,-56.75
1286.485,-56.96
1286.5,-56.98
1286.515,-57.11
1286.53,-57.06
1286.545,-57.09
1286.56,-57.02
1286.575,-56.75
1286.59,-56.6
1286.605,-56.79
1286.62,-56.67
1286.635,-56.66
1286.65,-56.74
1286.665,-56.56
1286.68,-56.83
1286.695,-56.97
1286.71,-56.97
1286.725,-56.99
1286.74,-56.93
1286.755,-57.17
1286.77,-57.23
1286.785,-56.96
1286.8,-57.02
1286.815,-56.83
1286.83,-56.99
1286.845,-56.93
1286.86,-56.67
1286.875,-56.89
1286.89,-56.67
1286.905,-56.83
1286.92,-56.51
1286.935,-56.45
1286.95,-56.81
1286.965,-56.77
1286.98,-56.57
1286.995,-56.61
1287.01,-56.69
1287.025,-56.98
1287.04,-56.84
1287.055,-56.65
1287.07,-56.82
1287.085,-56.57
1287.1,-56.83
1287.115,-56.53
1287.13,-56.53
1287.145,-56.68
1287.16,-56.71
1287.175,-56.77
1287.19,-56.46
1287.205,-56.48
1287.22,-56.76
1287.235,-56.66
1287.25,-56.58
1287.265,-56.45
1287.28,-56.48
1287.295,-56.77
1287.31,-56.47
1287.325,-56.32
1287.34,-56.46
1287.355,-56.83
1287.37,-56.82
1287.385,-56.6
1287.4,-56.51
1287.415,-56.8
1287.43,-56.85
1287.445,-56.47
1287.46,-56.36
1287.475,-56.44
1287.49,-56.51
1287.505,-56.46
1287.52,-56.1
1287.535,-56.2
1287.55,-56.37
1287.565,-56.46
1287.58,-56.28
1287.595,-56.24
1287.61,-56.33
1287.625,-56.59
1287.64,-56.34
1287.655,-56.22
1287.67,-56.33
1287.685,-56.51
1287.7,-56.51
1287.715,-56.07
1287.73,-56.18
1287.745,-56.2
1287.76,-56.4
1287.775,-56.15
1287.79,-56.09
1287.805,-56.16
1287.82,-56.48
1287.835,-56.62
1287.85,-56.28
1287.865,-56.35
1287.88,-56.45
1287.895,-56.76
1287.91,-56.41
1287.925,-56.26
1287.94,-56.37
1287.955,-56.52
1287.97,-56.37
1287.985,-56.26
1288.0,-56.42
1288.015,-56.73
1288.03,-56.83
1288.045,-56.61
1288.06,-56.64
1288.075,-56.76
1288.09,-57.06
1288.105,-56.68
1288.12,-56.51
1288.135,-56.52
1288.15,-56.8
1288.165,-56.56
1288.18,-56.26
1288.195,-56.25
1288.21,-56.38
1288.225,-56.52
1288.24,-56.32
1288.255,-56.32
1288.27,-56.48
1288.285,-56.73
1288.3,-56.68
1288.315,-56.54
1288.33,-56.66
1288.345,-56.89
1288.36,-56.78
1288.375,-56.36
1288.39,-56.34
1288.405,-56.53
1288.42,-56.8
1288.435,-56.46
1288.45,-56.41
1288.465,-56.53
1288.48,-56.78
1288.495,-56.79
1288.51,-56.59
1288.525,-56.61
1288.54,-56.77
1288.555,-56.85
1288.57,-56.52
1288.585,-56.51
1288.6,-56.57
1288.615,-56.79
1288.63,-56.58
1288.645,-56.51
1288.66,-56.69
1288.675,-56.78
1288.69,-56.85
1288.705,-56.51
1288.72,-56.57
1288.735,-56.66
1288.75,-56.9
1288.765,-56.5
1288.78,-56.42
1288.795,-56.53
1288.81,-56.72
1288.825,-56.61
1288.84,-56.24
1288.855,-56.27
1288.87,-56.36
1288.885,-56.45
1288.9,-56.22
1288.915,-56.16
1288.93,-56.42
1288.945,-56.7
1288.96,-56.67
1288.975,-56.4
1288.99,-56.59
1289.005,-56.87
1289.02,-56.65
1289.035,-56.25
1289.05,-56.25
1289.065,-56.35
1289.08,-56.51
1289.095,-56.22
1289.11,-56.24
1289.125,-56.46
1289.14,-56.71
1289.155,-56.64
1289.17,-56.5
1289.185,-56.49
1289.2,-56.8
1289.215,-56.97
1289.23,-56.5
1289.245,-56.39
1289.26,-56.46
1289.275,-56.66
1289.29,-56.39
1289.305,-56.12
1289.32,-56.32
1289.335,-56.4
1289.35,-56.44
1289.365,-56.2
1289.38,-56.24
1289.395,-56.45
1289.41,-56.59
1289.425,-56.14
1289.44,-56.04
1289.455,-56.15
1289.47,-56.4
1289.485,-56.26
1289.5,-55.93
1289.515,-56.02
1289.53,-56.17
1289.545,-56.25
1289.56,-56.06
1289.575,-56.0
1289.59,-56.16
1289.605,-56.39
1289.62,-56.38
1289.635,-56.16
1289.65,-56.27
1289.665,-56.38
1289.68,-56.39
1289.695,-56.1
1289.71,-56.03
1289.725,-56.2
1289.74,-56.33
1289.755,-56.08
1289.77,-56.16
1289.785,-56.38
1289.8,-56.53
1289.815,-56.45
1289.83,-56.33
1289.845,-56.44
1289.86,-56.69
1289.875,-56.76
1289.89,-56.37
1289.905,-56.26
1289.92,-56.47
1289.935,-56.62
1289.95,-56.41
1289.965,-56.13
1289.98,-56.43
1289.995,-56.58
1290.01,-56.41
1290.025,-56.19
1290.04,-56.25
1290.055,-56.5
1290.07,-56.55
1290.085,-56.39
1290.1,-56.33
1290.115,-56.4
1290.13,-56.6
1290.145,-56.46
1290.16,-56.21
1290.175,-56.32
1290.19,-56.46
1290.205,-56.56
1290.22,-56.25
1290.235,-56.39
1290.25,-56.65
1290.265,-56.72
1290.28,-56.51
1290.295,-56.45
1290.31,-56.54
1290.325,-56.59
1290.34,-56.61
1290.355,-56.25
1290.37,-56.15
1290.385,-56.34
1290.4,-56.42
1290.415,-56.2
1290.43,-56.13
1290.445,-56.33
1290.46,-56.51
1290.475,-56.43
1290.49,-56.14
1290.505,-56.27
1290.52,-56.41
1290.535,-56.44
1290.55,-56.09
1290.565,-56.03
1290.58,-56.24
1290.595,-56.41
1290.61,-56.24
1290.625,-56.01
1290.64,-56.18
1290.655,-56.33
1290.67,-56.23
1290.685,-56.01
1290.7,-56.03
1290.715,-56.35
1290.73,-56.35
1290.745,-56.0
1290.76,-56.13
1290.775,-56.12
1290.79,-56.17
1290.805,-56.02
1290.82,-55.88
1290.835,-56.02
1290.85,-56.17
1290.865,-55.88
1290.88,-55.78
1290.895,-55.84
1290.91,-56.09
1290.925,-56.2
1290.94,-55.9
1290.955,-55.97
1290.97,-56.26
1290.985,-56.27
1291.0,-56.14
1291.015,-55.92
1291.03,-56.04
1291.045,-56.38
1291.06,-56.0
1291.075,-55.96
1291.09,-55.82
1291.105,-56.13
1291.12,-56.18
1291.135,-55.85
1291.15,-55.92
1291.165,-56.17
1291.18,-56.02
1291.195,-56.13
1291.21,-55.79
1291.225,-56.01
1291.24,-56.26
1291.255,-56.02
1291.27,-55.99
1291.285,-56.17
1291.3,-56.34
1291.315,-56.48
1291.33,-56.24
1291.345,-56.17
1291.36,-56.42
1291.375,-56.6
1291.39,-56.5
1291.405,-56.18
1291.42,-56.29
1291.435,-56.69
1291.45,-56.48
1291.465,-56.32
1291.48,-56.25
1291.495,-56.46
1291.51,-56.76
1291.525,-56.48
1291.54,-56.31
1291.555,-56.66
1291.57,-56.77
1291.585,-56.71
1291.6,-56.31
1291.615,-56.28
1291.63,-56.57
1291.645,-56.52
1291.66,-56.33
1291.675,-56.27
1291.69,-56.57
1291.705,-56.91
1291.72,-56.58
1291.735,-56.5
1291.75,-56.88
1291.765,-56.83
1291.78,-56.77
1291.795,-56.65
1291.81,-56.62
1291.825,-56.95
1291.84,-56.89
1291.855,-56.64
1291.87,-56.76
1291.885,-57.0
1291.9,-56.99
1291.915,-56.83
1291.93,-56.53
1291.945,-56.77
1291.96,-56.9
1291.975,-56.57
1291.99,-56.34
1292.005,-56.56
1292.02,-56.81
1292.035,-56.87
1292.05,-56.51
1292.065,-56.7
1292.08,-56.98
1292.095,-57.06
1292.11,-56.7
1292.125,-56.55
1292.14,-56.86
1292.155,-57.06
1292.17,-56.66
1292.185,-56.71
1292.2,-56.89
1292.215,-56.97
1292.23,-56.92
1292.245,-56.49
1292.26,-56.52
1292.275,-56.83
1292.29,-56.47
1292.305,-56.26
1292.32,-56.21
1292.335,-56.37
1292.35,-56.52
1292.365,-56.19
1292.38,-56.15
1292.395,-56.42
1292.41,-56.5
1292.425,-56.4
1292.44,-56.18
1292.455,-56.32
1292.47,-56.6
1292.485,-56.43
1292.5,-56.28
1292.515,-56.25
1292.53,-56.41
1292.545,-56.68
1292.56,-56.28
1292.575,-56.14
1292.59,-56.39
1292.605,-56.53
1292.62,-56.5
1292.635,-56.37
1292.65,-56.27
1292.665,-56.6
1292.68,-56.59
1292.695,-56.35
1292.71,-56.18
1292.725,-56.38
1292.74,-56.67
1292.755,-56.33
1292.77,-56.17
1292.785,-56.54
1292.8,-56.51
1292.815,-56.46
1292.83,-56.32
1292.845,-56.2
1292.86,-56.47
1292.875,-56.43
1292.89,-56.12
1292.905,-56.21
1292.92,-56.43
1292.935,-56.49
1292.95,-56.34
1292.965,-56.09
1292.98,-56.39
1292.995,-56.54
1293.01,-56.21
1293.025,-56.09
1293.04,-56.16
1293.055,-56.41
1293.07,-56.37
1293.085,-56.08
1293.1,-56.18
1293.115,-56.4
1293.13,-56.44
1293.145,-56.29
1293.16,-55.97
1293.175,-56.18
1293.19,-56.3
1293.205,-55.96
1293.22,-56.05
1293.235,-56.1
1293.25,-56.11
1293.266,-56.15
1293.281,-55.85
1293.295,-55.99
1293.31,-56.23
1293.325,-56.07
1293.34,-55.93
1293.355,-56.0
1293.37,-56.29
1293.385,-56.44
1293.401,-56.14
1293.416,-56.18
1293.43,-56.5
1293.445,-56.42
1293.46,-56.29
1293.475,-56.02
1293.49,-56.1
1293.505,-56.38
1293.521,-56.13
1293.536,-56.0
1293.551,-55.97
1293.566,-56.07
1293.58,-56.28
1293.595,-55.94
1293.61,-55.84
1293.625,-56.24
1293.641,-56.1
1293.656,-56.04
1293.671,-55.94
1293.686,-55.85
1293.701,-56.22
1293.715,-56.07
1293.73,-55.86
1293.745,-55.79
1293.76,-55.93
1293.776,-55.89
1293.791,-55.68
1293.806,-55.51
1293.821,-55.79
1293.836,-55.75
1293.851,-55.69
1293.865,-55.59
1293.88,-55.77
1293.896,-56.03
1293.911,-55.97
1293.926,-55.75
1293.941,-55.96
1293.956,-56.08
1293.971,-56.03
1293.986,-55.95
1294.001,-55.8
1294.016,-56.15
1294.031,-56.18
1294.046,-55.99
1294.061,-55.88
1294.076,-56.05
1294.091,-56.33
1294.106,-56.24
1294.121,-55.9
1294.136,-56.01
1294.151,-56.23
1294.166,-56.22
1294.181,-56.11
1294.196,-55.93
1294.211,-56.18
1294.226,-56.24
1294.241,-55.97
1294.256,-56.18
1294.271,-56.31
1294.286,-56.34
1294.301,-56.33
1294.316,-56.02
1294.331,-56.19
1294.346,-56.47
1294.361,-56.25
1294.376,-56.0
1294.391,-56.09
1294.406,-56.32
1294.421,-56.46
1294.436,-56.05
1294.451,-56.12
1294.466,-56.42
1294.481,-56.49
1294.496,-56.46
1294.511,-56.17
1294.526,-56.29
1294.541,-56.58
1294.556,-56.36
1294.571,-56.28
1294.586,-56.37
1294.601,-56.55
1294.616,-56.75
1294.631,-56.27
1294.646,-56.43
1294.661,-56.83
1294.676,-56.7
1294.691,-56.7
1294.706,-56.48
1294.721,-56.55
1294.736,-56.93
1294.751,-56.68
1294.766,-56.53
1294.781,-56.71
1294.796,-56.81
1294.811,-56.9
1294.826,-56.65
1294.841,-56.54
1294.856,-56.84
1294.871,-57.0
1294.886,-56.71
1294.901,-56.44
1294.916,-56.72
1294.931,-56.99
1294.946,-56.7
1294.961,-56.46
1294.976,-56.77
1294.991,-56.92
1295.006,-56.92
1295.021,-56.6
1295.036,-56.45
1295.051,-56.71
1295.066,-56.77
1295.081,-56.41
1295.096,-56.14
1295.111,-56.32
1295.126,-56.4
1295.141,-56.47
1295.156,-56.11
1295.171,-56.32
1295.186,-56.51
1295.201,-56.51
1295.216,-56.39
1295.231,-56.39
1295.246,-56.58
1295.261,-56.65
1295.276,-56.29
1295.291,-56.36
1295.306,-56.64
1295.321,-56.78
1295.336,-56.79
1295.351,-56.43
1295.366,-56.49
1295.381,-56.85
1295.396,-56.54
1295.411,-56.26
1295.426,-56.23
1295.441,-56.37
1295.456,-56.65
1295.471,-56.29
1295.486,-56.32
1295.501,-56.51
1295.516,-56.65
1295.531,-56.59
1295.546,-56.46
1295.561,-56.45
1295.576,-56.83
1295.591,-56.58
1295.606,-56.39
1295.621,-56.41
1295.636,-56.72
1295.651,-56.56
1295.666,-56.26
1295.681,-56.2
1295.696,-56.5
1295.711,-56.42
1295.726,-56.28
1295.741,-56.08
1295.756,-56.41
1295.771,-56.35
1295.786,-56.28
1295.801,-56.18
1295.816,-56.4
1295.831,-56.5
1295.846,-56.49
1295.861,-56.33
1295.876,-56.36
1295.891,-56.34
1295.906,-56.49
1295.921,-56.22
1295.936,-56.13
1295.951,-56.27
1295.966,-56.33
1295.981,-56.18
1295.996,-56.11
1296.011,-56.24
1296.026,-56.4
1296.041,-56.4
1296.056,-56.24
1296.071,-56.27
1296.086,-56.43
1296.101,-56.47
1296.116,-56.31
1296.131,-56.33
1296.146,-56.45
1296.161,-56.5
1296.176,-56.36
1296.191,-56.27
1296.206,-56.5
1296.221,-56.44
1296.236,-56.33
1296.251,-56.23
1296.266,-56.24
1296.281,-56.32
1296.296,-56.28
1296.311,-56.14
1296.326,-56.28
1296.341,-56.07
1296.356,-56.16
1296.371,-56.12
1296.386,-56.09
1296.401,-56.23
1296.416,-56.21
1296.431,-56.08
1296.446,-56.35
1296.461,-56.16
1296.476,-56.25
1296.491,-56.23
1296.506,-56.12
1296.521,-56.22
1296.536,-56.22
1296.551,-56.08
1296.566,-56.32
1296.581,-56.22
1296.596,-56.34
1296.611,-56.33
1296.626,-56.22
1296.641,-56.27
1296.656,-56.36
1296.671,-56.29
1296.686,-56.39
1296.701,-56.38
1296.716,-56.49
1296.731,-56.59
1296.746,-56.6
1296.761,-56.36
1296.776,-56.56
1296.791,-56.43
1296.806,-56.49
1296.821,-56.54
1296.836,-56.59
1296.851,-56.64
1296.866,-56.65
1296.881,-56.52
1296.896,-56.79
1296.911,-56.61
1296.926,-56.65
1296.941,-56.47
1296.956,-56.46
1296.971,-56.56
1296.986,-56.59
1297.001,-56.44
1297.016,-56.53
1297.031,-56.39
1297.046,-56.37
1297.061,-56.35
1297.076,-56.3
1297.091,-56.46
1297.106,-56.47
1297.121,-56.36
1297.136,-56.6
1297.151,-56.4
1297.166,-56.36
1297.181,-56.47
1297.196,-56.37
1297.211,-56.42
1297.226,-56.45
1297.241,-56.45
1297.256,-56.6
1297.271,-56.59
1297.286,-56.7
1297.301,-56.75
1297.316,-56.62
1297.331,-56.58
1297.346,-56.74
1297.361,-56.67
1297.376,-56.85
1297.391,-56.93
1297.406,-56.9
1297.421,-57.02
1297.436,-57.05
1297.451,-56.84
1297.466,-56.97
1297.481,-56.74
1297.496,-56.78
1297.511,-57.04
1297.526,-56.89
1297.541,-57.01
1297.556,-57.01
1297.571,-56.93
1297.586,-56.99
1297.601,-56.66
1297.616,-56.63
1297.631,-56.86
1297.646,-56.63
1297.661,-56.78
1297.676,-56.83
1297.691,-56.77
1297.706,-56.84
1297.721,-56.61
1297.736,-56.35
1297.751,-56.37
1297.766,-56.44
1297.781,-56.44
1297.796,-56.52
1297.811,-56.52
1297.826,-56.51
1297.841,-56.48
1297.856,-56.24
1297.871,-56.4
1297.886,-56.41
1297.901,-56.36
1297.916,-56.4
1297.931,-56.26
1297.946,-56.47
1297.961,-56.58
1297.976,-56.27
1297.991,-56.34
1298.006,-56.36
1298.021,-56.38
1298.036,-56.37
1298.051,-56.29
1298.066,-56.4
1298.081,-56.6
1298.096,-56.5
1298.111,-56.55
1298.126,-56.57
1298.141,-56.43
1298.156,-56.52
1298.171,-56.5
1298.186,-56.37
1298.201,-56.59
1298.216,-56.39
1298.231,-56.52
1298.246,-56.43
1298.261,-56.39
1298.276,-56.41
1298.291,-56.15
1298.306,-56.13
1298.321,-56.3
1298.336,-56.09
1298.351,-56.12
1298.366,-56.24
1298.381,-56.26
1298.396,-56.18
1298.411,-56.15
1298.426,-56.04
1298.441,-56.09
1298.456,-56.05
1298.471,-56.01
1298.486,-56.15
1298.501,-56.07
1298.516,-55.96
1298.531,-56.09
1298.546,-55.96
1298.561,-56.12
1298.576,-55.98
1298.591,-55.88
1298.606,-56.0
1298.621,-55.99
1298.636,-55.88
1298.651,-56.12
1298.666,-55.88
1298.681,-55.93
1298.696,-55.96
1298.711,-55.77
1298.726,-55.94
1298.741,-56.05
1298.756,-56.07
1298.771,-56.15
1298.786,-56.15
1298.801,-56.22
1298.816,-56.2
1298.831,-56.12
1298.846,-56.06
1298.861,-56.23
1298.876,-56.1
1298.891,-56.13
1298.906,-56.22
1298.921,-56.27
1298.936,-56.36
1298.951,-56.3
1298.966,-56.09
1298.981,-56.36
1298.996,-56.17
1299.011,-56.27
1299.026,-56.21
1299.041,-56.27
1299.056,-56.32
1299.071,-56.34
1299.086,-56.35
1299.101,-56.37
1299.116,-56.07
1299.131,-56.08
1299.146,-56.07
1299.161,-56.06
1299.176,-56.06
1299.191,-56.09
1299.206,-56.0
1299.221,-56.16
1299.236,-55.98
1299.251,-55.94
1299.266,-55.95
1299.281,-55.87
1299.296,-55.99
1299.311,-56.01
1299.326,-55.95
1299.341,-56.25
1299.356,-56.14
1299.371,-56.27
1299.386,-56.1
1299.401,-56.11
1299.416,-56.12
1299.431,-56.12
1299.446,-56.01
1299.461,-56.2
1299.476,-56.3
1299.491,-56.29
1299.506,-56.35
1299.521,-56.23
1299.536,-56.14
1299.551,-56.21
1299.566,-55.94
1299.581,-56.12
1299.596,-56.27
1299.611,-56.1
1299.626,-56.34
1299.641,-56.36
1299.656,-56.22
1299.671,-56.44
1299.686,-56.18
1299.701,-56.2
1299.716,-56.53
1299.731,-56.44
1299.746,-56.53
1299.761,-56.56
1299.776,-56.48
1299.791,-56.57
1299.806,-56.27
1299.821,-56.19
1299.836,-56.37
1299.851,-56.48
1299.866,-56.25
1299.881,-56.31
1299.896,-56.4
1299.911,-56.32
1299.926,-56.24
1299.941,-56.1
1299.956,-56.14
1299.971,-56.43
1299.986,-56.23
1300.001,-56.24
1300.016,-56.31
1300.031,-56.33
1300.046,-56.35
1300.061,-56.24
1300.076,-56.32
1300.091,-56.31
1300.106,-56.23
1300.121,-56.17
1300.136,-56.1
1300.151,-56.15
1300.166,-56.21
1300.181,-56.13
1300.196,-56.13
1300.211,-56.24
1300.226,-56.33
1300.241,-56.3
1300.256,-56.22
1300.271,-56.31
1300.286,-56.39
1300.301,-56.48
1300.316,-56.42
1300.331,-56.36
1300.346,-56.43
1300.361,-56.51
1300.376,-56.09
1300.391,-56.24
1300.406,-56.29
1300.421,-56.31
1300.436,-56.19
1300.451,-56.19
1300.466,-56.29
1300.481,-56.26
1300.496,-55.94
1300.511,-55.89
1300.526,-56.24
1300.541,-56.23
1300.556,-56.2
1300.571,-56.19
1300.586,-56.21
1300.601,-56.34
1300.616,-56.32
1300.631,-56.02
1300.646,-56.01
1300.661,-56.04
1300.676,-56.07
1300.691,-56.02
1300.706,-56.06
1300.721,-56.07
1300.736,-55.96
1300.751,-55.7
1300.766,-55.63
1300.781,-55.78
1300.796,-55.76
1300.811,-55.7
1300.826,-55.74
1300.841,-55.78
1300.856,-55.69
1300.871,-55.59
1300.886,-55.63
1300.901,-55.57
1300.916,-55.68
1300.931,-55.59
1300.946,-55.59
1300.961,-55.71
1300.976,-55.75
1300.991,-55.62
1301.006,-55.73
1301.021,-55.66
1301.036,-55.81
1301.051,-55.79
1301.066,-55.67
1301.081,-55.62
1301.096,-55.71
1301.111,-55.58
1301.126,-55.8
1301.141,-55.8
1301.156,-55.86
1301.171,-55.89
1301.186,-55.88
1301.201,-55.85
1301.216,-55.95
1301.231,-55.78
1301.246,-55.84
1301.261,-55.91
1301.276,-55.97
1301.292,-56.08
1301.307,-56.01
1301.321,-55.87
1301.336,-55.99
1301.351,-55.84
1301.366,-55.79
1301.381,-55.96
1301.396,-55.87
1301.411,-55.89
1301.427,-55.98
1301.442,-55.89
1301.457,-56.06
1301.471,-55.97
1301.486,-55.84
1301.501,-56.03
1301.516,-56.0
1301.531,-55.84
1301.547,-55.98
1301.562,-55.87
1301.577,-55.86
1301.592,-55.94
1301.606,-55.67
1301.621,-55.86
1301.636,-55.93
1301.651,-55.99
1301.667,-56.18
1301.682,-56.01
1301.697,-55.95
1301.712,-56.02
1301.727,-55.82
1301.742,-55.92
1301.756,-56.0
1301.771,-56.03
1301.786,-56.11
1301.802,-56.1
1301.817,-56.01
1301.832,-55.99
1301.847,-55.97
1301.862,-55.92
1301.877,-56.19
1301.891,-56.1
1301.906,-56.29
1301.922,-56.43
1301.937,-56.27
1301.952,-56.2
1301.967,-56.4
1301.982,-56.19
1301.997,-56.45
1302.012,-56.19
1302.027,-56.19
1302.042,-56.38
1302.057,-56.27
1302.072,-56.18
1302.087,-56.29
1302.102,-56.49
1302.117,-56.6
1302.132,-56.34
1302.147,-56.36
1302.162,-56.54
1302.177,-56.63
1302.192,-56.44
1302.207,-56.46
1302.222,-56.71
1302.237,-56.92
1302.252,-56.8
1302.267,-56.62
1302.282,-56.67
1302.297,-56.89
1302.312,-56.54
1302.327,-56.46
1302.342,-56.67
1302.357,-56.92
1302.372,-56.96
1302.387,-56.58
1302.402,-56.71
1302.417,-57.13
1302.432,-56.8
1302.447,-56.62
1302.462,-56.65
1302.477,-56.97
1302.492,-56.94
1302.507,-56.78
1302.522,-56.8
1302.537,-57.22
1302.552,-57.03
1302.567,-56.81
1302.582,-56.86
1302.597,-57.19
1302.612,-57.23
1302.627,-56.85
1302.642,-56.65
1302.657,-56.82
1302.672,-56.99
1302.687,-56.71
1302.702,-56.71
1302.717,-56.93
1302.732,-57.07
1302.747,-56.67
1302.762,-56.58
1302.777,-56.69
1302.792,-56.91
1302.807,-56.63
1302.822,-56.58
1302.837,-56.81
1302.852,-57.13
1302.867,-56.93
1302.882,-56.7
1302.897,-56.63
1302.912,-56.92
1302.927,-56.61
1302.942,-56.38
1302.957,-56.61
1302.972,-56.67
1302.987,-56.63
1303.002,-56.18
1303.017,-56.44
1303.032,-56.75
1303.047,-56.76
1303.062,-56.45
1303.077,-56.49
1303.092,-56.81
1303.107,-56.67
1303.122,-56.36
1303.137,-56.44
1303.152,-56.45
1303.167,-56.74
1303.182,-56.45
1303.197,-56.34
1303.212,-56.58
1303.227,-56.55
1303.242,-56.2
1303.257,-56.0
1303.272,-56.3
1303.287,-56.51
1303.302,-56.3
1303.317,-56.2
1303.332,-56.36
1303.347,-56.54
1303.362,-56.33
1303.377,-56.02
1303.392,-56.32
1303.407,-56.55
1303.422,-56.39
1303.437,-56.29
1303.452,-56.41
1303.467,-56.67
1303.482,-56.58
1303.497,-56.43
1303.512,-56.45
1303.527,-56.73
1303.542,-56.45
1303.557,-56.4
1303.572,-56.33
1303.587,-56.52
1303.602,-56.45
1303.617,-56.31
1303.632,-56.36
1303.647,-56.82
1303.662,-56.87
1303.677,-56.43
1303.692,-56.53
1303.707,-56.71
1303.722,-56.71
1303.737,-56.57
1303.752,-56.7
1303.767,-56.93
1303.782,-57.25
1303.797,-56.85
1303.812,-56.85
1303.827,-57.24
1303.842,-57.17
1303.857,-57.03
1303.872,-56.93
1303.887,-56.99
1303.902,-57.31
1303.917,-57.09
1303.932,-56.87
1303.947,-57.2
1303.962,-57.44
1303.977,-57.09
1303.992,-56.91
1304.007,-57.1
1304.022,-57.15
1304.037,-57.09
1304.052,-56.71
1304.067,-56.81
1304.082,-57.2
1304.097,-56.9
1304.112,-56.81
1304.127,-57.04
1304.142,-57.04
1304.157,-57.44
1304.172,-56.9
1304.187,-56.85
1304.202,-57.2
1304.217,-57.14
1304.232,-56.78
1304.247,-56.92
1304.262,-57.29
1304.277,-56.99
1304.292,-56.8
1304.307,-56.64
1304.322,-56.9
1304.337,-57.09
1304.352,-56.73
1304.367,-56.67
1304.382,-57.11
1304.397,-57.02
1304.412,-56.74
1304.427,-56.74
1304.442,-56.94
1304.457,-57.21
1304.472,-56.91
1304.487,-56.59
1304.502,-56.91
1304.517,-56.95
1304.532,-56.58
1304.547,-56.59
1304.562,-56.7
1304.577,-56.85
1304.592,-56.75
1304.607,-56.39
1304.622,-56.62
1304.637,-56.93
1304.652,-56.53
1304.667,-56.36
1304.682,-56.67
1304.697,-56.78
1304.712,-56.67
1304.727,-56.48
1304.742,-56.77
1304.757,-57.04
1304.772,-56.92
1304.787,-56.58
1304.802,-56.74
1304.817,-57.1
1304.832,-56.67
1304.847,-56.55
1304.862,-56.65
1304.877,-56.86
1304.892,-56.68
1304.907,-56.55
1304.922,-56.48
1304.937,-56.9
1304.952,-56.8
1304.967,-56.39
1304.982,-56.56
1304.997,-56.89
1305.012,-56.88
1305.027,-56.74
1305.042,-56.87
1305.057,-57.08
1305.072,-57.32
1305.087,-56.86
1305.102,-56.91
1305.117,-57.24
1305.132,-56.97
1305.147,-56.85
1305.162,-56.81
1305.177,-57.0
1305.192,-56.92
1305.207,-56.76
1305.222,-56.63
1305.237,-56.98
1305.252,-57.03
1305.267,-56.65
1305.282,-56.79
1305.297,-57.05
1305.312,-57.09
1305.327,-56.88
1305.342,-56.93
1305.357,-57.14
1305.372,-57.42
1305.387,-56.93
1305.402,-56.79
1305.417,-57.19
1305.432,-57.08
1305.447,-56.69
1305.462,-56.6
1305.477,-56.71
1305.492,-56.69
1305.507,-56.52
1305.522,-56.27
1305.537,-56.59
1305.552,-56.84
1305.567,-56.51
1305.582,-56.47
1305.597,-56.76
1305.612,-56.88
1305.627,-56.76
1305.642,-56.45
1305.657,-56.55
1305.672,-56.89
1305.687,-56.7
1305.702,-56.41
1305.717,-56.66
1305.732,-56.85
1305.747,-56.45
1305.762,-56.29
1305.777,-56.18
1305.792,-56.41
1305.807,-56.41
1305.822,-55.98
1305.837,-56.07
1305.852,-56.41
1305.867,-56.15
1305.882,-55.94
1305.897,-56.21
1305.912,-56.36
1305.927,-56.6
1305.942,-56.27
1305.957,-56.22
1305.972,-56.65
1305.987,-56.52
1306.002,-56.24
1306.017,-56.42
1306.032,-56.69
1306.047,-56.66
1306.062,-56.41
1306.077,-56.14
1306.092,-56.3
1306.107,-56.52
1306.122,-56.11
1306.137,-56.1
1306.152,-56.41
1306.167,-56.37
1306.182,-56.18
1306.197,-56.24
1306.212,-56.25
1306.227,-56.51
1306.242,-56.23
1306.257,-56.1
1306.272,-56.46
1306.287,-56.48
1306.302,-56.38
1306.317,-56.18
1306.332,-56.31
1306.347,-56.41
1306.362,-56.25
1306.377,-55.91
1306.392,-56.07
1306.407,-56.42
1306.422,-56.14
1306.437,-56.16
1306.452,-56.21
1306.467,-56.26
1306.482,-56.29
1306.497,-56.17
1306.512,-56.17
1306.527,-56.55
1306.542,-56.49
1306.557,-56.23
1306.572,-56.32
1306.587,-56.34
1306.602,-56.3
1306.617,-56.17
1306.632,-56.17
1306.647,-56.53
1306.662,-56.61
1306.677,-56.23
1306.692,-56.24
1306.707,-56.63
1306.722,-56.68
1306.737,-56.43
1306.752,-56.48
1306.767,-56.64
1306.782,-56.86
1306.797,-56.52
1306.812,-56.39
1306.827,-56.75
1306.842,-56.9
1306.857,-56.52
1306.872,-56.42
1306.887,-56.61
1306.902,-56.81
1306.917,-56.64
1306.932,-56.36
1306.947,-56.55
1306.962,-56.78
1306.977,-56.37
1306.992,-56.36
1307.007,-56.6
1307.022,-56.7
1307.037,-56.54
1307.052,-56.11
1307.067,-56.29
1307.082,-56.61
1307.097,-56.42
1307.112,-56.23
1307.127,-56.49
1307.142,-56.62
1307.157,-56.38
1307.172,-56.13
1307.187,-56.12
1307.202,-56.43
1307.217,-56.51
1307.232,-56.22
1307.247,-56.3
1307.262,-56.67
1307.277,-56.4
1307.292,-56.25
1307.307,-56.33
1307.322,-56.51
1307.337,-56.68
1307.352,-56.35
1307.367,-56.2
1307.382,-56.62
1307.397,-56.73
1307.412,-56.36
1307.427,-56.43
1307.442,-56.49
1307.457,-56.5
1307.472,-56.45
1307.487,-56.17
1307.502,-56.5
1307.517,-56.65
1307.532,-56.37
1307.547,-56.26
1307.562,-56.5
1307.577,-56.41
1307.592,-56.36
1307.607,-56.23
1307.622,-56.43
1307.637,-56.44
1307.652,-56.16
1307.667,-55.97
1307.682,-56.31
1307.697,-56.4
1307.712,-56.09
1307.727,-55.84
1307.742,-56.07
1307.757,-56.09
1307.772,-55.89
1307.787,-55.81
1307.802,-56.0
1307.817,-56.02
1307.832,-55.79
1307.847,-55.66
1307.862,-55.86
1307.877,-56.04
1307.892,-55.98
1307.907,-55.84
1307.922,-55.97
1307.937,-55.94
1307.952,-55.76
1307.967,-55.74
1307.982,-55.93
1307.997,-56.09
1308.012,-55.84
1308.027,-55.78
1308.042,-55.96
1308.057,-56.07
1308.072,-55.96
1308.087,-55.79
1308.102,-56.09
1308.117,-56.07
1308.132,-55.89
1308.147,-56.0
1308.162,-56.2
1308.177,-56.37
1308.192,-56.24
1308.207,-56.04
1308.222,-56.22
1308.237,-56.2
1308.252,-56.07
1308.267,-55.91
1308.282,-56.06
1308.297,-56.15
1308.312,-55.98
1308.327,-56.06
1308.342,-55.97
1308.357,-56.08
1308.372,-56.09
1308.387,-55.93
1308.402,-55.99
1308.417,-56.0
1308.432,-55.97
1308.447,-55.92
1308.462,-56.2
1308.477,-56.11
1308.492,-56.23
1308.507,-56.29
1308.522,-56.23
1308.537,-56.32
1308.552,-56.21
1308.567,-55.96
1308.582,-56.16
1308.597,-56.28
1308.612,-56.24
1308.627,-56.18
1308.642,-56.35
1308.657,-56.25
1308.672,-56.46
1308.687,-56.21
1308.702,-56.23
1308.717,-56.38
1308.732,-56.44
1308.747,-56.28
1308.762,-56.49
1308.777,-56.54
1308.792,-56.43
1308.807,-56.49
1308.822,-56.61
1308.837,-56.93
1308.852,-56.81
1308.867,-56.61
1308.882,-56.66
1308.897,-56.78
1308.912,-56.59
1308.927,-56.45
1308.942,-56.71
1308.957,-56.81
1308.972,-56.73
1308.987,-56.45
1309.002,-56.43
1309.017,-56.81
1309.032,-56.65
1309.047,-56.38
1309.062,-56.56
1309.077,-56.69
1309.092,-56.63
1309.107,-56.5
1309.122,-56.73
1309.137,-57.02
1309.152,-56.79
1309.167,-56.53
1309.182,-56.53
1309.198,-56.77
1309.212,-56.76
1309.227,-56.41
1309.242,-56.67
1309.257,-56.86
1309.272,-56.75
1309.287,-56.46
1309.302,-56.63
1309.318,-56.83
1309.333,-56.48
1309.347,-56.39
1309.362,-56.42
1309.377,-56.68
1309.392,-56.61
1309.407,-56.45
1309.422,-56.67
1309.438,-56.96
1309.453,-56.93
1309.468,-56.51
1309.483,-56.57
1309.497,-56.86
1309.512,-56.52
1309.527,-56.35
1309.542,-56.37
1309.557,-56.62
1309.573,-56.63
1309.588,-56.46
1309.603,-56.48
1309.618,-56.78
1309.632,-56.72
1309.647,-56.42
1309.662,-56.6
1309.677,-56.79
1309.693,-56.81
1309.708,-56.63
1309.723,-56.7
1309.738,-56.92
1309.753,-56.67
1309.768,-56.48
1309.782,-56.42
1309.797,-56.75
1309.813,-56.58
1309.828,-56.42
1309.843,-56.26
1309.858,-56.61
1309.873,-56.63
1309.888,-56.49
1309.903,-56.5
1309.917,-56.74
1309.932,-56.6
1309.948,-56.43
1309.963,-56.43
1309.978,-56.6
1309.993,-56.71
1310.008,-56.54
1310.023,-56.44
1310.038,-56.76
1310.053,-56.69
1310.068,-56.34
1310.083,-56.46
1310.098,-56.64
1310.113,-56.4
1310.128,-56.16
1310.143,-55.95
1310.158,-56.14
1310.173,-56.26
1310.188,-56.07
1310.203,-56.13
1310.218,-56.3
1310.233,-56.31
1310.248,-56.08
1310.263,-56.21
1310.278,-56.27
1310.293,-56.33
1310.308,-56.23
1310.323,-56.08
1310.338,-56.36
1310.353,-56.49
1310.368,-56.28
1310.383,-56.29
1310.398,-56.57
1310.413,-56.42
1310.428,-56.12
1310.443,-56.14
1310.458,-56.04
1310.473,-55.99
1310.488,-56.0
1310.503,-55.78
1310.518,-56.02
1310.533,-56.08
1310.548,-55.96
1310.563,-55.99
1310.578,-56.18
1310.593,-56.0
1310.608,-56.05
1310.623,-56.15
1310.638,-56.02
1310.653,-55.98
1310.668,-55.98
1310.683,-55.86
1310.698,-56.0
1310.713,-55.98
1310.728,-55.82
1310.743,-55.79
1310.758,-56.06
1310.773,-55.87
1310.788,-56.03
1310.803,-56.02
1310.818,-55.95
1310.833,-55.9
1310.848,-55.81
1310.863,-55.62
1310.878,-55.87
1310.893,-55.79
1310.908,-55.67
1310.923,-55.74
1310.938,-55.9
1310.953,-55.74
1310.968,-55.83
1310.983,-55.83
1310.998,-55.78
1311.013,-55.83
1311.028,-55.67
1311.043,-55.59
1311.058,-55.69
1311.073,-55.72
1311.088,-55.56
1311.103,-55.57
1311.118,-55.77
1311.133,-55.75
1311.148,-55.84
1311.163,-55.81
1311.178,-55.68
1311.193,-55.84
1311.208,-55.64
1311.223,-55.53
1311.238,-55.76
1311.253,-55.73
1311.268,-55.56
1311.283,-55.64
1311.298,-55.75
1311.313,-55.75
1311.328,-55.76
1311.343,-55.82
1311.358,-55.57
1311.373,-55.69
1311.388,-55.51
1311.403,-55.34
1311.418,-55.54
1311.433,-55.58
1311.448,-55.47
1311.463,-55.59
1311.478,-55.7
1311.493,-55.67
1311.508,-55.75
1311.523,-55.78
1311.538,-55.64
1311.553,-55.72
1311.568,-55.62
1311.583,-55.6
1311.598,-55.88
1311.613,-55.83
1311.628,-55.52
1311.643,-55.71
1311.658,-55.78
1311.673,-55.69
1311.688,-55.76
1311.703,-55.77
1311.718,-55.66
1311.733,-55.73
1311.748,-55.56
1311.763,-55.52
1311.778,-55.74
1311.793,-55.59
1311.808,-55.45
1311.823,-55.65
1311.838,-55.65
1311.853,-55.68
1311.868,-55.85
1311.883,-55.78
1311.898,-55.73
1311.913,-55.84
1311.928,-55.65
1311.943,-55.67
1311.958,-55.85
1311.973,-55.74
1311.988,-55.58
1312.003,-55.74
1312.018,-55.7
1312.033,-55.74
1312.048,-55.76
1312.063,-55.73
1312.078,-55.72
1312.093,-55.79
1312.108,-55.6
1312.123,-55.58
1312.138,-55.72
1312.153,-55.64
1312.168,-55.57
1312.183,-55.84
1312.198,-55.78
1312.213,-55.73
1312.228,-55.98
1312.243,-55.81
1312.258,-56.03
1312.273,-55.94
1312.288,-55.73
1312.303,-55.69
1312.318,-55.92
1312.333,-55.89
1312.348,-55.67
1312.363,-55.88
1312.378,-55.88
1312.393,-55.9
1312.408,-55.97
1312.423,-55.96
1312.438,-56.27
1312.453,-56.23
1312.468,-55.99
1312.483,-56.04
1312.498,-56.29
1312.513,-56.27
1312.528,-56.0
1312.543,-56.27
1312.558,-56.35
1312.573,-56.27
1312.588,-56.25
1312.603,-56.24
1312.618,-56.13
1312.633,-56.26
1312.648,-55.91
1312.663,-55.99
1312.678,-56.26
1312.693,-56.16
1312.708,-55.86
1312.723,-56.11
1312.738,-56.2
1312.753,-56.16
1312.768,-56.09
1312.783,-56.1
1312.798,-56.19
1312.813,-56.28
1312.828,-56.13
1312.843,-56.28
1312.858,-56.64
1312.873,-56.46
1312.888,-56.2
1312.903,-56.47
1312.918,-56.48
1312.933,-56.4
1312.948,-56.33
1312.963,-56.34
1312.978,-56.47
1312.993,-56.44
1313.008,-56.33
1313.023,-56.47
1313.038,-56.5
1313.053,-56.47
1313.068,-56.17
1313.083,-56.38
1313.098,-56.49
1313.113,-56.54
1313.128,-56.46
1313.143,-56.58
1313.158,-56.64
1313.173,-56.54
1313.188,-56.38
1313.203,-56.45
1313.218,-56.49
1313.233,-56.3
1313.248,-56.52
1313.263,-56.26
1313.278,-56.22
1313.293,-56.27
1313.308,-56.29
1313.323,-56.36
1313.338,-56.33
1313.353,-56.21
1313.368,-56.2
1313.383,-56.34
1313.398,-56.36
1313.413,-56.29
1313.428,-56.38
1313.443,-56.12
1313.458,-56.01
1313.473,-56.17
1313.488,-56.33
1313.503,-56.3
1313.518,-56.27
1313.533,-56.23
1313.548,-56.23
1313.563,-56.25
1313.578,-56.18
1313.593,-56.21
1313.608,-56.18
1313.623,-56.26
1313.638,-56.16
1313.653,-56.41
1313.668,-56.44
1313.683,-56.5
1313.698,-56.45
1313.713,-56.5
1313.728,-56.53
1313.743,-56.52
1313.758,-56.55
1313.773,-56.59
1313.788,-56.71
1313.803,-56.6
1313.818,-56.52
1313.833,-56.6
1313.848,-56.53
1313.863,-56.5
1313.878,-56.41
1313.893,-56.45
1313.908,-56.4
1313.923,-56.39
1313.938,-56.43
1313.953,-56.47
1313.968,-56.6
1313.983,-56.42
1313.998,-56.47
1314.013,-56.63
1314.028,-56.51
1314.043,-56.79
1314.058,-56.61
1314.073,-56.68
1314.088,-56.82
1314.103,-56.73
1314.118,-56.7
1314.133,-56.8
1314.148,-56.67
1314.163,-56.62
1314.178,-56.59
1314.193,-56.74
1314.208,-56.6
1314.223,-56.77
1314.238,-56.77
1314.253,-56.47
1314.268,-56.58
1314.283,-56.57
1314.298,-56.6
1314.313,-56.83
1314.328,-56.76
1314.343,-56.59
1314.358,-56.68
1314.373,-56.88
1314.388,-56.77
1314.403,-56.86
1314.418,-56.89
1314.433,-56.62
1314.448,-56.78
1314.463,-56.85
1314.478,-56.76
1314.493,-56.64
1314.508,-56.56
1314.523,-56.4
1314.538,-56.48
1314.553,-56.61
1314.568,-56.33
1314.583,-56.59
1314.598,-56.47
1314.613,-56.26
1314.628,-56.39
1314.643,-56.48
1314.658,-56.35
1314.673,-56.49
1314.688,-56.31
1314.703,-56.21
1314.718,-56.29
1314.733,-56.39
1314.748,-56.24
1314.763,-56.21
1314.778,-56.39
1314.793,-56.16
1314.808,-56.29
1314.823,-56.31
1314.838,-56.16
1314.853,-56.24
1314.868,-56.11
1314.883,-56.03
1314.898,-56.08
1314.913,-56.26
1314.928,-56.14
1314.943,-56.09
1314.958,-56.24
1314.973,-56.15
1314.988,-56.16
1315.003,-56.18
1315.018,-55.96
1315.033,-56.0
1315.048,-55.9
1315.063,-55.81
1315.078,-55.93
1315.093,-56.0
1315.108,-55.84
1315.123,-55.77
1315.138,-55.95
1315.153,-56.0
1315.168,-55.89
1315.183,-55.97
1315.198,-56.05
1315.213,-56.09
1315.228,-56.14
1315.243,-56.06
1315.258,-56.14
1315.273,-56.25
1315.288,-56.2
1315.303,-56.2
1315.318,-56.26
1315.333,-56.18
1315.348,-56.08
1315.363,-56.18
1315.378,-56.16
1315.393,-56.23
1315.408,-55.95
1315.423,-56.03
1315.438,-56.4
1315.453,-56.33
1315.468,-56.27
1315.483,-56.29
1315.498,-56.36
1315.513,-56.32
1315.528,-56.33
1315.543,-56.34
1315.558,-56.29
1315.573,-56.53
1315.588,-56.18
1315.603,-56.28
1315.618,-56.67
1315.633,-56.5
1315.648,-56.41
1315.663,-56.46
1315.678,-56.35
1315.693,-56.41
1315.708,-56.35
1315.723,-56.44
1315.738,-56.45
1315.753,-56.45
1315.768,-56.46
1315.783,-56.39
1315.798,-56.6
1315.813,-56.37
1315.828,-56.3
1315.843,-56.47
1315.858,-56.67
1315.873,-56.69
1315.888,-56.72
1315.903,-56.71
1315.918,-56.61
1315.933,-56.66
1315.948,-56.57
1315.963,-56.62
1315.978,-56.63
1315.993,-56.51
1316.008,-56.39
1316.023,-56.68
1316.038,-56.81
1316.053,-56.48
1316.068,-56.51
1316.083,-56.89
1316.098,-56.65
1316.113,-56.72
1316.128,-56.72
1316.143,-56.7
1316.158,-56.7
1316.173,-56.66
1316.188,-56.71
1316.203,-56.72
1316.218,-56.82
1316.233,-56.46
1316.248,-56.45
1316.263,-56.88
1316.278,-56.55
1316.293,-56.3
1316.308,-56.42
1316.323,-56.37
1316.338,-56.44
1316.353,-56.33
1316.368,-56.41
1316.383,-56.55
1316.398,-56.43
1316.413,-56.36
1316.428,-56.42
1316.443,-56.44
1316.458,-56.2
1316.473,-56.02
1316.488,-56.22
1316.503,-56.42
1316.518,-56.11
1316.533,-56.01
1316.548,-56.18
1316.563,-56.24
1316.578,-56.08
1316.593,-56.05
1316.608,-56.18
1316.623,-56.19
1316.638,-56.04
1316.653,-55.99
1316.668,-56.25
1316.683,-56.34
1316.698,-55.99
1316.713,-56.0
1316.728,-56.29
1316.743,-56.2
1316.758,-55.99
1316.773,-56.08
1316.788,-56.42
1316.803,-56.43
1316.818,-56.29
1316.833,-56.36
1316.848,-56.51
1316.863,-56.44
1316.878,-56.12
1316.893,-56.03
1316.908,-56.45
1316.923,-56.3
1316.938,-55.96
1316.953,-56.24
1316.968,-56.48
1316.983,-56.12
1316.998,-56.0
1317.013,-56.37
1317.028,-56.41
1317.043,-56.05
1317.058,-56.08
1317.073,-56.4
1317.088,-56.36
1317.103,-56.33
1317.118,-56.11
1317.133,-56.33
1317.148,-56.65
1317.163,-56.33
1317.178,-56.26
1317.193,-56.6
1317.208,-56.47
1317.224,-56.08
1317.238,-56.1
1317.253,-56.47
1317.268,-56.13
1317.283,-55.99
1317.298,-56.34
1317.313,-56.45
1317.328,-56.47
1317.344,-56.12
1317.359,-56.2
1317.373,-56.51
1317.388,-56.26
1317.403,-55.94
1317.418,-56.11
1317.433,-56.43
1317.448,-56.17
1317.464,-56.04
1317.479,-56.35
1317.494,-56.46
1317.509,-56.1
1317.523,-56.08
1317.538,-56.42
1317.553,-56.38
1317.568,-56.17
1317.583,-56.11
1317.599,-56.38
1317.614,-56.65
1317.629,-56.3
1317.644,-56.21
1317.658,-56.43
1317.673,-56.37
1317.688,-56.11
1317.703,-56.18
1317.719,-56.52
1317.734,-56.32
1317.749,-56.12
1317.764,-56.27
1317.779,-56.5
1317.794,-56.06
1317.808,-55.84
1317.823,-55.8
1317.839,-56.04
1317.854,-56.01
1317.869,-55.71
1317.884,-55.78
1317.899,-56.08
1317.914,-55.79
1317.929,-55.69
1317.944,-55.96
1317.958,-56.05
1317.974,-55.76
1317.989,-55.79
1318.004,-56.19
1318.019,-56.0
1318.034,-55.99
1318.049,-56.02
1318.064,-56.11
1318.079,-56.22
1318.094,-55.97
1318.109,-55.86
1318.124,-56.07
1318.139,-56.16
1318.154,-55.71
1318.169,-55.7
1318.184,-55.94
1318.199,-55.7
1318.214,-55.53
1318.229,-55.78
1318.244,-55.99
1318.259,-55.96
1318.274,-55.88
1318.289,-55.97
1318.304,-56.01
1318.319,-56.0
1318.334,-55.89
1318.349,-55.95
1318.364,-56.27
1318.379,-56.04
1318.394,-55.95
1318.409,-56.22
1318.424,-56.41
1318.439,-56.03
1318.454,-56.06
1318.469,-56.13
1318.484,-56.2
1318.499,-56.05
1318.514,-56.0
1318.529,-56.18
1318.544,-56.22
1318.559,-56.12
1318.574,-56.16
1318.589,-56.33
1318.604,-56.34
1318.619,-56.08
1318.634,-56.06
1318.649,-56.3
1318.664,-56.23
1318.679,-56.11
1318.694,-56.23
1318.709,-56.48
1318.724,-56.13
1318.739,-56.06
1318.754,-56.13
1318.769,-56.26
1318.784,-56.09
1318.799,-56.13
1318.814,-56.17
1318.829,-56.49
1318.844,-56.21
1318.859,-56.07
1318.874,-56.38
1318.889,-56.56
1318.904,-56.24
1318.919,-56.17
1318.934,-56.53
1318.949,-56.44
1318.964,-56.18
1318.979,-56.31
1318.994,-56.67
1319.009,-56.56
1319.024,-56.49
1319.039,-56.33
1319.054,-56.63
1319.069,-56.73
1319.084,-56.36
1319.099,-56.34
1319.114,-56.68
1319.129,-56.53
1319.144,-56.18
1319.159,-56.46
1319.174,-56.79
1319.189,-56.37
1319.204,-56.28
1319.219,-56.67
1319.234,-56.62
1319.249,-56.35
1319.264,-56.18
1319.279,-56.29
1319.294,-56.65
1319.309,-56.42
1319.324,-56.17
1319.339,-56.43
1319.354,-56.61
1319.369,-56.26
1319.384,-56.16
1319.399,-56.43
1319.414,-56.33
1319.429,-56.06
1319.444,-56.26
1319.459,-56.42
1319.474,-56.4
1319.489,-56.15
1319.504,-56.28
1319.519,-56.31
1319.534,-56.29
1319.549,-56.09
1319.564,-56.07
1319.579,-56.42
1319.594,-56.27
1319.609,-56.06
1319.624,-56.08
1319.639,-56.3
1319.654,-56.16
1319.669,-56.02
1319.684,-56.19
1319.699,-56.17
1319.714,-55.94
1319.729,-56.12
1319.744,-56.36
1319.759,-56.26
1319.774,-56.12
1319.789,-56.13
1319.804,-56.32
1319.819,-56.22
1319.834,-55.94
1319.849,-56.01
1319.864,-56.29
1319.879,-56.18
1319.894,-55.94
1319.909,-56.08
1319.924,-56.33
1319.939,-56.01
1319.954,-55.96
1319.969,-56.18
1319.984,-56.2
1319.999,-55.92
1320.014,-55.81
1320.029,-56.02
1320.044,-56.0
1320.059,-55.78
1320.074,-55.79
1320.089,-55.98
1320.104,-56.24
1320.119,-55.92
1320.134,-55.85
1320.149,-56.22
1320.164,-56.24
1320.179,-55.84
1320.194,-56.08
1320.209,-56.4
1320.224,-56.1
1320.239,-55.99
1320.254,-56.29
1320.269,-56.32
1320.284,-56.27
1320.299,-56.0
1320.314,-56.25
1320.329,-56.23
1320.344,-56.06
1320.359,-56.01
1320.374,-56.2
1320.389,-56.49
1320.404,-56.27
1320.419,-56.15
1320.434,-56.47
1320.449,-56.43
1320.464,-56.09
1320.479,-56.15
1320.494,-56.53
1320.509,-56.29
1320.524,-56.17
1320.539,-56.49
1320.554,-56.52
1320.569,-56.51
1320.584,-56.25
1320.599,-56.44
1320.614,-56.42
1320.629,-56.35
1320.644,-56.23
1320.659,-56.4
1320.674,-56.36
1320.689,-56.17
1320.704,-56.4
1320.719,-56.57
1320.734,-56.6
1320.749,-56.25
1320.764,-56.36
1320.779,-56.66
1320.794,-56.49
1320.809,-56.27
1320.824,-56.42
1320.839,-56.67
1320.854,-56.63
1320.869,-56.34
1320.884,-56.46
1320.899,-56.68
1320.914,-56.43
1320.929,-56.34
1320.944,-56.62
1320.959,-56.51
1320.974,-56.33
1320.989,-56.44
1321.004,-56.69
1321.019,-56.49
1321.034,-56.26
1321.049,-56.49
1321.064,-56.5
1321.079,-56.36
1321.094,-56.14
1321.109,-55.99
1321.124,-56.31
1321.139,-56.34
1321.154,-56.06
1321.169,-56.01
1321.184,-56.26
1321.199,-56.07
1321.214,-55.9
1321.229,-56.14
1321.244,-56.1
1321.259,-55.91
1321.274,-55.91
1321.289,-56.05
1321.304,-56.0
1321.319,-55.72
1321.334,-55.92
1321.349,-56.15
1321.364,-56.02
1321.379,-56.0
1321.394,-55.96
1321.409,-55.88
1321.424,-55.97
1321.439,-56.03
1321.454,-56.01
1321.469,-56.28
1321.484,-56.18
1321.499,-55.89
1321.514,-56.12
1321.529,-56.23
1321.544,-55.9
1321.559,-55.84
1321.574,-56.04
1321.589,-56.02
1321.604,-55.79
1321.619,-55.89
1321.634,-56.05
1321.649,-56.01
1321.664,-55.76
1321.679,-56.04
1321.694,-56.13
1321.709,-55.84
1321.724,-55.79
1321.739,-55.88
1321.754,-56.14
1321.769,-56.14
1321.784,-55.86
1321.799,-56.07
1321.814,-56.18
1321.829,-56.0
1321.844,-55.87
1321.859,-56.12
1321.874,-56.2
1321.889,-55.97
1321.904,-55.95
1321.919,-56.24
1321.934,-56.09
1321.949,-55.93
1321.964,-56.26
1321.979,-56.34
1321.994,-56.04
1322.009,-55.91
1322.024,-56.15
1322.039,-56.46
1322.054,-56.21
1322.069,-56.12
1322.084,-56.37
1322.099,-56.59
1322.114,-56.53
1322.129,-56.27
1322.144,-56.41
1322.159,-56.5
1322.174,-56.4
1322.189,-56.36
1322.204,-56.67
1322.219,-56.56
1322.234,-56.39
1322.249,-56.77
1322.264,-56.85
1322.279,-56.68
1322.294,-56.57
1322.309,-56.69
1322.324,-57.04
1322.339,-56.68
1322.354,-56.45
1322.369,-56.8
1322.384,-56.81
1322.399,-56.51
1322.414,-56.6
1322.429,-56.98
1322.444,-56.64
1322.459,-56.44
1322.474,-56.42
1322.489,-56.62
1322.504,-56.58
1322.519,-56.32
1322.534,-56.51
1322.549,-56.61
1322.564,-56.55
1322.579,-56.44
1322.594,-56.67
1322.609,-56.94
1322.624,-56.68
1322.639,-56.53
1322.654,-56.82
1322.669,-57.03
1322.684,-56.64
1322.699,-56.63
1322.714,-57.13
1322.729,-57.03
1322.744,-56.75
1322.759,-56.5
1322.774,-56.69
1322.789,-56.69
1322.804,-56.4
1322.819,-56.43
1322.834,-56.7
1322.849,-56.62
1322.864,-56.42
1322.879,-56.62
1322.894,-56.73
1322.909,-56.51
1322.924,-56.5
1322.939,-56.66
1322.954,-56.61
1322.969,-56.29
1322.984,-56.46
1322.999,-56.73
1323.014,-56.82
1323.029,-56.54
1323.044,-56.38
1323.059,-56.56
1323.074,-56.65
1323.089,-56.29
1323.104,-56.32
1323.119,-56.43
1323.134,-56.27
1323.149,-56.15
1323.164,-56.33
1323.179,-56.38
1323.194,-56.3
1323.209,-56.23
1323.224,-56.5
1323.239,-56.38
1323.254,-56.07
1323.269,-56.27
1323.284,-56.4
1323.299,-56.35
1323.314,-56.43
1323.329,-56.41
1323.344,-56.44
1323.359,-56.44
1323.374,-56.25
1323.389,-56.25
1323.404,-56.4
1323.419,-56.22
1323.434,-56.03
1323.449,-56.28
1323.464,-56.41
1323.479,-56.17
1323.494,-56.05
1323.509,-56.41
1323.524,-56.37
1323.539,-56.07
1323.554,-56.25
1323.569,-56.54
1323.584,-56.41
1323.599,-56.36
1323.614,-56.42
1323.629,-56.4
1323.644,-56.4
1323.659,-56.37
1323.674,-56.37
1323.689,-56.28
1323.704,-56.36
1323.719,-56.24
1323.734,-56.29
1323.749,-56.48
1323.764,-56.38
1323.779,-56.25
1323.794,-56.48
1323.809,-56.62
1323.824,-56.41
1323.839,-56.35
1323.854,-56.63
1323.869,-56.57
1323.884,-56.28
1323.899,-56.42
1323.914,-56.64
1323.929,-56.41
1323.944,-56.32
1323.959,-56.57
1323.974,-56.63
1323.989,-56.3
1324.004,-56.29
1324.019,-56.28
1324.034,-56.27
1324.049,-56.21
1324.064,-56.14
1324.079,-56.06
1324.094,-56.25
1324.109,-56.22
1324.124,-56.33
1324.139,-56.61
1324.154,-56.62
1324.169,-56.27
1324.184,-56.49
1324.199,-56.64
1324.214,-56.44
1324.229,-56.2
1324.244,-56.56
1324.259,-56.62
1324.274,-56.3
1324.289,-56.29
1324.304,-56.49
1324.319,-56.33
1324.334,-56.01
1324.349,-56.13
1324.364,-56.24
1324.379,-56.18
1324.394,-56.2
1324.409,-56.25
1324.424,-56.32
1324.439,-56.31
1324.454,-56.28
1324.469,-56.28
1324.484,-56.31
1324.499,-56.32
1324.514,-56.03
1324.529,-56.34
1324.544,-56.51
1324.559,-56.27
1324.574,-56.08
1324.589,-56.32
1324.604,-56.2
1324.619,-55.83
1324.634,-55.93
1324.649,-56.12
1324.664,-55.93
1324.679,-55.7
1324.694,-56.05
1324.709,-56.11
1324.724,-55.85
1324.739,-55.84
1324.754,-55.87
1324.769,-55.85
1324.784,-55.81
1324.799,-55.8
1324.814,-55.86
1324.829,-55.83
1324.844,-55.96
1324.859,-56.02
1324.874,-55.96
1324.889,-56.08
1324.904,-55.86
1324.919,-55.82
1324.934,-56.01
1324.949,-55.92
1324.964,-55.72
1324.979,-55.86
1324.994,-56.01
1325.009,-55.88
1325.024,-55.72
1325.039,-56.01
1325.054,-55.99
1325.069,-55.87
1325.084,-56.07
1325.099,-56.16
1325.114,-56.06
1325.129,-55.85
1325.144,-55.92
1325.159,-55.81
1325.174,-55.86
1325.189,-55.86
1325.204,-55.86
1325.219,-55.79
1325.234,-55.92
1325.25,-55.85
1325.264,-55.75
1325.279,-55.94
1325.294,-55.81
1325.309,-55.68
1325.324,-55.98
1325.339,-56.03
1325.354,-55.86
1325.37,-55.91
1325.385,-56.13
1325.4,-56.01
1325.414,-55.81
1325.429,-56.05
1325.444,-56.16
1325.459,-55.96
1325.474,-55.94
1325.49,-56.21
1325.505,-56.14
1325.52,-56.26
1325.535,-56.26
1325.549,-56.07
1325.564,-56.08
1325.579,-56.25
1325.594,-56.2
1325.609,-56.21
1325.625,-56.25
1325.64,-56.43
1325.655,-56.27
1325.67,-56.3
1325.685,-56.53
1325.699,-56.5
1325.714,-56.34
1325.729,-56.42
1325.745,-56.41
1325.76,-56.35
1325.775,-56.62
1325.79,-56.62
1325.805,-56.46
1325.82,-56.61
1325.834,-56.65
1325.849,-56.49
1325.865,-56.29
1325.88,-56.47
1325.895,-56.31
1325.91,-56.39
1325.925,-56.6
1325.94,-56.44
1325.955,-56.41
1325.97,-56.54
1325.984,-56.55
1326.0,-56.41
1326.015,-56.45
1326.03,-56.73
1326.045,-56.61
1326.06,-56.53
1326.075,-56.66
1326.09,-56.68
1326.105,-56.49
1326.12,-56.52
1326.135,-56.73
1326.15,-56.66
1326.165,-56.42
1326.18,-56.57
1326.195,-56.77
1326.21,-56.4
1326.225,-56.38
1326.24,-56.51
1326.255,-56.52
1326.27,-56.47
1326.285,-56.26
1326.3,-56.67
1326.315,-56.71
1326.33,-56.33
1326.345,-56.24
1326.36,-56.35
1326.375,-56.51
1326.39,-56.31
1326.405,-56.32
1326.42,-56.57
1326.435,-56.47
1326.45,-56.27
1326.465,-56.34
1326.48,-56.52
1326.495,-56.21
1326.51,-56.18
1326.525,-56.24
1326.54,-56.22
1326.555,-56.08
1326.57,-56.12
1326.585,-56.35
1326.6,-56.1
1326.615,-55.98
1326.63,-56.18
1326.645,-56.16
1326.66,-56.06
1326.675,-56.07
1326.69,-56.25
1326.705,-56.09
1326.72,-56.03
1326.735,-56.06
1326.75,-56.32
1326.765,-56.18
1326.78,-55.87
1326.795,-55.97
1326.81,-56.26
1326.825,-55.9
1326.84,-55.79
1326.855,-56.14
1326.87,-56.09
1326.885,-55.82
1326.9,-55.99
1326.915,-56.3
1326.93,-55.97
1326.945,-55.83
1326.96,-55.86
1326.975,-56.03
1326.99,-56.01
1327.005,-55.94
1327.02,-56.0
1327.035,-56.08
1327.05,-55.89
1327.065,-55.94
1327.08,-56.03
1327.095,-56.0
1327.11,-55.89
1327.125,-55.88
1327.14,-55.98
1327.155,-55.87
1327.17,-55.97
1327.185,-56.06
1327.2,-56.04
1327.215,-55.99
1327.23,-56.06
1327.245,-56.19
1327.26,-56.13
1327.275,-56.02
1327.29,-56.16
1327.305,-56.17
1327.32,-56.06
1327.335,-56.06
1327.35,-56.26
1327.365,-56.56
1327.38,-56.18
1327.395,-56.17
1327.41,-56.39
1327.425,-56.3
1327.44,-56.02
1327.455,-56.11
1327.47,-56.47
1327.485,-56.17
1327.5,-56.15
1327.515,-56.29
1327.53,-56.48
1327.545,-56.16
1327.56,-56.2
1327.575,-56.36
1327.59,-56.35
1327.605,-56.39
1327.62,-56.37
1327.635,-56.35
1327.65,-56.34
1327.665,-56.27
1327.68,-56.35
1327.695,-56.34
1327.71,-56.26
1327.725,-56.24
1327.74,-56.25
1327.755,-56.3
1327.77,-56.26
1327.785,-56.26
1327.8,-56.34
1327.815,-56.32
1327.83,-56.17
1327.845,-56.26
1327.86,-56.32
1327.875,-56.27
1327.89,-56.28
1327.905,-56.27
1327.92,-56.27
1327.935,-56.28
1327.95,-56.22
1327.965,-56.52
1327.98,-56.58
1327.995,-56.24
1328.01,-56.16
1328.025,-56.48
1328.04,-56.19
1328.055,-56.08
1328.07,-56.3
1328.085,-56.36
1328.1,-56.01
1328.115,-56.12
1328.13,-56.47
1328.145,-56.33
1328.16,-56.07
1328.175,-56.17
1328.19,-56.32
1328.205,-56.3
1328.22,-56.2
1328.235,-56.26
1328.25,-56.29
1328.265,-56.24
1328.28,-56.23
1328.295,-56.21
1328.31,-56.18
1328.325,-56.04
1328.34,-56.07
1328.355,-56.21
1328.37,-56.1
1328.385,-56.1
1328.4,-56.11
1328.415,-56.28
1328.43,-56.15
1328.445,-56.08
1328.46,-56.19
1328.475,-56.09
1328.49,-56.07
1328.505,-56.0
1328.52,-56.18
1328.535,-56.1
1328.55,-56.05
1328.565,-56.11
1328.58,-56.4
1328.595,-56.15
1328.61,-55.91
1328.625,-56.12
1328.64,-56.39
1328.655,-56.1
1328.67,-56.05
1328.685,-56.36
1328.7,-56.25
1328.715,-56.03
1328.73,-56.06
1328.745,-56.45
1328.76,-56.17
1328.775,-56.02
1328.79,-56.29
1328.805,-56.38
1328.82,-56.29
1328.835,-56.23
1328.85,-56.38
1328.865,-56.34
1328.88,-56.26
1328.895,-56.2
1328.91,-56.28
1328.925,-56.16
1328.94,-56.04
1328.955,-56.11
1328.97,-56.12
1328.985,-56.02
1329.0,-55.94
1329.015,-56.11
1329.03,-56.09
1329.045,-56.0
1329.06,-55.97
1329.075,-56.01
1329.09,-56.05
1329.105,-56.03
1329.12,-56.05
1329.135,-56.08
1329.15,-56.01
1329.165,-55.99
1329.18,-56.11
1329.195,-56.23
1329.21,-55.85
1329.225,-55.75
1329.24,-55.99
1329.255,-55.96
1329.27,-55.7
1329.285,-55.88
1329.3,-56.17
1329.315,-55.89
1329.33,-55.96
1329.345,-56.17
1329.36,-56.2
1329.375,-55.89
1329.39,-55.97
1329.405,-56.04
1329.42,-56.03
1329.435,-55.98
1329.45,-56.07
1329.465,-56.19
1329.48,-56.19
1329.495,-56.04
1329.51,-56.11
1329.525,-56.18
1329.54,-56.09
1329.555,-56.01
1329.57,-56.08
1329.585,-56.05
1329.6,-55.92
1329.615,-56.01
1329.63,-56.07
1329.645,-56.01
1329.66,-55.85
1329.675,-55.93
1329.69,-55.92
1329.705,-55.88
1329.72,-55.83
1329.735,-56.05
1329.75,-55.99
1329.765,-55.84
1329.78,-55.92
1329.795,-55.98
1329.81,-55.91
1329.825,-55.65
1329.84,-55.75
1329.855,-55.98
1329.87,-55.75
1329.885,-55.59
1329.9,-55.82
1329.915,-55.98
1329.93,-55.73
1329.945,-55.72
1329.96,-56.0
1329.975,-55.94
1329.99,-55.78
1330.005,-55.88
1330.02,-56.15
1330.035,-55.87
1330.05,-55.91
1330.065,-56.24
1330.08,-56.22
1330.095,-55.85
1330.11,-55.94
1330.125,-56.14
1330.14,-55.85
1330.155,-55.68
1330.17,-55.93
1330.185,-56.05
1330.2,-55.71
1330.215,-55.69
1330.23,-56.05
1330.245,-55.9
1330.26,-55.72
1330.275,-55.88
1330.29,-55.97
1330.305,-55.74
1330.32,-55.73
1330.335,-56.0
1330.35,-55.9
1330.365,-55.66
1330.38,-55.83
1330.395,-55.97
1330.41,-55.93
1330.425,-55.65
1330.44,-55.78
1330.455,-55.77
1330.47,-55.61
1330.485,-55.57
1330.5,-55.68
1330.515,-55.68
1330.53,-55.54
1330.545,-55.61
1330.56,-55.68
1330.575,-55.6
1330.59,-55.56
1330.605,-55.65
1330.62,-55.61
1330.635,-55.54
1330.65,-55.36
1330.665,-55.64
1330.68,-55.8
1330.695,-55.58
1330.71,-55.47
1330.725,-55.87
1330.74,-55.74
1330.755,-55.43
1330.77,-55.65
1330.785,-55.84
1330.8,-55.55
1330.815,-55.5
1330.83,-55.72
1330.845,-55.75
1330.86,-55.47
1330.875,-55.58
1330.89,-55.88
1330.905,-55.72
1330.92,-55.55
1330.935,-55.77
1330.95,-55.93
1330.965,-55.65
1330.98,-55.65
1330.995,-55.87
1331.01,-55.82
1331.025,-55.53
1331.04,-55.67
1331.055,-55.79
1331.07,-55.58
1331.085,-55.43
1331.1,-55.75
1331.115,-55.79
1331.13,-55.61
1331.145,-55.72
1331.16,-56.06
1331.175,-55.98
1331.19,-55.65
1331.205,-55.88
1331.22,-56.08
1331.235,-55.82
1331.25,-55.75
1331.265,-55.81
1331.28,-56.07
1331.295,-55.92
1331.31,-55.81
1331.325,-56.05
1331.34,-56.04
1331.355,-55.85
1331.37,-55.89
1331.385,-56.06
1331.4,-55.8
1331.415,-55.77
1331.43,-55.92
1331.445,-55.93
1331.46,-55.81
1331.475,-55.98
1331.49,-56.09
1331.505,-55.97
1331.52,-55.95
1331.535,-56.02
1331.55,-56.06
1331.565,-56.03
1331.58,-56.09
1331.595,-56.15
1331.61,-56.15
1331.625,-56.13
1331.64,-56.13
1331.655,-56.3
1331.67,-56.22
1331.685,-55.98
1331.7,-56.06
1331.715,-56.4
1331.73,-56.08
1331.745,-56.01
1331.76,-56.26
1331.775,-56.24
1331.79,-55.95
1331.805,-56.01
1331.82,-56.3
1331.835,-56.08
1331.85,-55.87
1331.865,-56.22
1331.88,-56.34
1331.895,-55.98
1331.91,-55.98
1331.925,-56.31
1331.94,-56.14
1331.955,-55.9
1331.97,-56.03
1331.985,-56.28
1332.0,-56.01
1332.015,-55.9
1332.03,-56.21
1332.045,-56.21
1332.06,-55.97
1332.075,-56.05
1332.09,-56.47
1332.105,-56.24
1332.12,-56.14
1332.135,-56.34
1332.15,-56.5
1332.165,-56.11
1332.18,-56.07
1332.195,-56.47
1332.21,-56.41
1332.225,-56.18
1332.24,-56.26
1332.255,-56.51
1332.27,-56.57
1332.285,-56.27
1332.3,-56.33
1332.315,-56.5
1332.33,-56.36
1332.345,-56.08
1332.36,-56.38
1332.375,-56.4
1332.39,-56.13
1332.405,-56.03
1332.42,-56.28
1332.435,-56.52
1332.45,-56.2
1332.465,-56.17
1332.48,-56.44
1332.495,-56.27
1332.51,-56.05
1332.525,-56.22
1332.54,-56.56
1332.555,-56.16
1332.57,-55.98
1332.585,-56.31
1332.6,-56.27
1332.615,-55.94
1332.63,-55.94
1332.645,-56.32
1332.66,-56.13
1332.675,-55.93
1332.69,-56.14
1332.705,-56.35
1332.72,-56.02
1332.735,-55.97
1332.75,-56.29
1332.765,-56.18
1332.78,-55.99
1332.795,-56.16
1332.81,-56.48
1332.825,-56.16
1332.84,-56.14
1332.855,-56.52
1332.87,-56.44
1332.885,-56.08
1332.9,-56.14
1332.915,-56.59
1332.93,-56.27
1332.945,-56.12
1332.96,-56.39
1332.975,-56.58
1332.99,-56.29
1333.005,-56.2
1333.02,-56.63
1333.035,-56.35
1333.05,-56.21
1333.065,-56.47
1333.08,-56.69
1333.095,-56.24
1333.11,-56.08
1333.125,-56.43
1333.141,-56.35
1333.155,-56.1
1333.17,-56.3
1333.185,-56.58
1333.2,-56.17
1333.215,-55.98
1333.23,-56.22
1333.245,-56.27
1333.26,-55.94
1333.276,-56.0
1333.29,-56.32
1333.305,-56.05
1333.32,-55.93
1333.335,-56.11
1333.35,-56.32
1333.365,-55.94
1333.38,-56.08
1333.396,-56.38
1333.411,-56.43
1333.426,-56.33
1333.44,-56.2
1333.455,-56.41
1333.47,-56.4
1333.485,-56.26
1333.5,-56.39
1333.516,-56.5
1333.531,-56.33
1333.546,-56.16
1333.561,-56.44
1333.575,-56.52
1333.59,-56.32
1333.605,-56.43
1333.62,-56.56
1333.635,-56.6
1333.651,-56.31
1333.666,-56.57
1333.681,-56.62
1333.696,-56.48
1333.711,-56.43
1333.725,-56.58
1333.74,-56.58
1333.755,-56.33
1333.771,-56.51
1333.786,-56.64
1333.801,-56.47
1333.816,-56.31
1333.831,-56.55
1333.846,-56.45
1333.86,-56.23
1333.875,-56.35
1333.891,-56.44
1333.906,-56.35
1333.921,-56.19
1333.936,-56.36
1333.951,-56.33
1333.966,-56.2
1333.981,-56.28
1333.996,-56.34
1334.01,-56.35
1334.026,-56.19
1334.041,-56.39
1334.056,-56.39
1334.071,-56.22
1334.086,-56.16
1334.101,-56.28
1334.116,-56.29
1334.131,-56.09
1334.146,-56.28
1334.161,-56.2
1334.176,-55.97
1334.191,-55.87
1334.206,-56.06
1334.221,-56.06
1334.236,-55.92
1334.251,-56.11
1334.266,-56.2
1334.281,-56.16
1334.296,-56.12
1334.311,-56.36
1334.326,-56.32
1334.341,-56.15
1334.356,-56.2
1334.371,-56.35
1334.386,-56.25
1334.401,-55.95
1334.416,-56.19
1334.431,-56.14
1334.446,-56.03
1334.461,-55.94
1334.476,-56.13
1334.491,-56.05
1334.506,-55.85
1334.521,-55.93
1334.536,-56.1
1334.551,-56.02
1334.566,-55.87
1334.581,-56.01
1334.596,-56.05
1334.611,-55.82
1334.626,-55.84
1334.641,-56.01
1334.656,-55.93
1334.671,-55.71
1334.686,-55.95
1334.701,-55.93
1334.716,-55.71
1334.731,-55.73
1334.746,-55.91
1334.761,-55.83
1334.776,-55.63
1334.791,-55.77
1334.806,-55.85
1334.821,-55.76
1334.836,-55.7
1334.851,-55.86
1334.866,-55.89
1334.881,-55.72
1334.896,-55.88
1334.911,-56.11
1334.926,-56.0
1334.941,-55.91
1334.956,-56.13
1334.971,-56.16
1334.986,-55.88
1335.001,-55.92
1335.016,-56.12
1335.031,-55.98
1335.046,-55.78
1335.061,-55.91
1335.076,-56.03
1335.091,-55.83
1335.106,-55.76
1335.121,-56.12
1335.136,-56.11
1335.151,-55.79
1335.166,-55.94
1335.181,-56.29
1335.196,-56.11
1335.211,-55.96
1335.226,-56.31
1335.241,-56.45
1335.256,-56.13
1335.271,-56.08
1335.286,-56.36
1335.301,-56.26
1335.316,-55.91
1335.331,-56.08
1335.346,-56.37
1335.361,-56.07
1335.376,-55.97
1335.391,-56.27
1335.406,-56.37
1335.421,-56.21
1335.436,-56.42
1335.451,-56.39
1335.466,-56.25
1335.481,-56.36
1335.496,-56.42
1335.511,-56.43
1335.526,-56.4
1335.541,-56.57
1335.556,-56.57
1335.571,-56.45
1335.586,-56.44
1335.601,-56.55
1335.616,-56.51
1335.631,-56.35
1335.646,-56.36
1335.661,-56.45
1335.676,-56.4
1335.691,-56.29
1335.706,-56.42
1335.721,-56.42
1335.736,-56.38
1335.751,-56.43
1335.766,-56.55
1335.781,-56.54
1335.796,-56.42
1335.811,-56.54
1335.826,-56.66
1335.841,-56.57
1335.856,-56.62
1335.871,-56.8
1335.886,-56.7
1335.901,-56.49
1335.916,-56.62
1335.931,-56.64
1335.946,-56.39
1335.961,-56.29
1335.976,-56.51
1335.991,-56.53
1336.006,-56.38
1336.021,-56.44
1336.036,-56.44
1336.051,-56.4
1336.066,-56.44
1336.081,-56.53
1336.096,-56.47
1336.111,-56.49
1336.126,-56.45
1336.141,-56.56
1336.156,-56.59
1336.171,-56.49
1336.186,-56.62
1336.201,-56.59
1336.216,-56.52
1336.231,-56.45
1336.246,-56.49
1336.261,-56.37
1336.276,-56.38
1336.291,-56.44
1336.306,-56.37
1336.321,-56.38
1336.336,-56.25
1336.351,-56.31
1336.366,-56.21
1336.381,-56.26
1336.396,-56.24
1336.411,-56.26
1336.426,-56.18
1336.441,-56.03
1336.456,-56.31
1336.471,-56.43
1336.486,-56.05
1336.501,-56.11
1336.516,-56.34
1336.531,-56.13
1336.546,-55.92
1336.561,-56.08
1336.576,-56.18
1336.591,-55.94
1336.606,-55.89
1336.621,-56.1
1336.636,-56.15
1336.651,-55.97
1336.666,-56.12
1336.681,-56.38
1336.696,-56.18
1336.711,-56.05
1336.726,-56.48
1336.741,-56.46
1336.756,-56.15
1336.771,-56.25
1336.786,-56.45
1336.801,-56.25
1336.816,-56.07
1336.831,-56.25
1336.846,-56.18
1336.861,-55.88
1336.876,-55.9
1336.891,-56.17
1336.906,-56.09
1336.921,-55.87
1336.936,-56.05
1336.951,-56.2
1336.966,-56.05
1336.981,-55.86
1336.996,-56.1
1337.011,-56.17
1337.026,-55.86
1337.041,-56.05
1337.056,-56.33
1337.071,-56.16
1337.086,-55.99
1337.101,-56.32
1337.116,-56.42
1337.131,-56.11
1337.146,-56.01
1337.161,-56.22
1337.176,-56.21
1337.191,-55.84
1337.206,-56.04
1337.221,-56.21
1337.236,-56.02
1337.251,-55.87
1337.266,-56.15
1337.281,-56.21
1337.296,-55.99
1337.311,-56.09
1337.326,-56.21
1337.341,-56.26
1337.356,-56.04
1337.371,-56.33
1337.386,-56.42
1337.401,-56.13
1337.416,-56.17
1337.431,-56.3
1337.446,-56.14
1337.461,-55.88
1337.476,-56.03
1337.491,-56.14
1337.506,-56.02
1337.521,-55.93
1337.536,-56.22
1337.551,-56.11
1337.566,-55.98
1337.581,-56.14
1337.596,-56.33
1337.611,-56.21
1337.626,-56.06
1337.641,-56.3
1337.656,-56.36
1337.671,-56.15
1337.686,-56.14
1337.701,-56.35
1337.716,-56.25
1337.731,-55.93
1337.746,-56.17
1337.761,-56.25
1337.776,-56.03
1337.791,-55.94
1337.806,-56.23
1337.821,-56.16
1337.836,-55.91
1337.851,-56.07
1337.866,-56.36
1337.881,-56.1
1337.896,-55.94
1337.911,-56.25
1337.926,-56.28
1337.941,-55.95
1337.956,-56.04
1337.971,-56.35
1337.986,-56.25
1338.001,-56.11
1338.016,-56.21
1338.031,-56.35
1338.046,-56.11
1338.061,-55.96
1338.076,-56.22
1338.091,-56.13
1338.106,-55.9
1338.121,-56.04
1338.136,-56.15
1338.151,-56.18
1338.166,-56.15
1338.181,-56.17
1338.196,-56.21
1338.211,-56.16
1338.226,-56.15
1338.241,-56.18
1338.256,-56.21
1338.271,-56.22
1338.286,-56.05
1338.301,-56.05
1338.316,-56.05
1338.331,-56.06
1338.346,-55.98
1338.361,-55.91
1338.376,-55.98
1338.391,-55.92
1338.406,-56.01
1338.421,-55.95
1338.436,-55.98
1338.451,-55.91
1338.466,-55.98
1338.481,-56.07
1338.496,-56.12
1338.511,-56.04
1338.526,-56.09
1338.541,-56.09
1338.556,-56.16
1338.571,-56.0
1338.586,-56.04
1338.601,-56.04
1338.616,-56.02
1338.631,-56.03
1338.646,-56.03
1338.661,-55.97
1338.676,-55.91
1338.691,-55.91
1338.706,-55.83
1338.721,-55.85
1338.736,-55.89
1338.751,-55.89
1338.766,-55.98
1338.781,-55.85
1338.796,-55.89
1338.811,-55.92
1338.826,-56.04
1338.841,-56.01
1338.856,-56.06
1338.871,-56.02
1338.886,-56.04
1338.901,-56.02
1338.916,-55.98
1338.931,-56.04
1338.946,-56.06
1338.961,-55.99
1338.976,-56.0
1338.991,-56.0
1339.006,-55.94
1339.021,-55.97
1339.036,-55.98
1339.051,-55.88
1339.066,-55.89
1339.081,-55.88
1339.096,-55.92
1339.111,-55.93
1339.126,-55.82
1339.141,-55.75
1339.156,-55.77
1339.171,-55.82
1339.186,-55.79
1339.201,-55.76
1339.216,-55.7
1339.231,-55.82
1339.246,-55.75
1339.261,-55.85
1339.276,-55.76
1339.291,-55.9
1339.306,-55.85
1339.321,-55.89
1339.336,-55.87
1339.351,-55.87
1339.366,-55.96
1339.381,-55.89
1339.396,-55.98
1339.411,-55.9
1339.426,-55.99
1339.441,-55.97
1339.456,-56.01
1339.471,-56.11
1339.486,-56.02
1339.501,-56.01
1339.516,-56.05
1339.531,-56.01
1339.546,-55.96
1339.561,-55.95
1339.576,-56.05
1339.591,-55.97
1339.606,-55.97
1339.621,-55.91
1339.636,-55.94
1339.651,-55.92
1339.666,-55.93
1339.681,-55.93
1339.696,-55.87
1339.711,-55.97
1339.726,-56.0
1339.741,-56.04
1339.756,-56.0
1339.771,-55.97
1339.786,-56.03
1339.801,-56.1
1339.816,-56.12
1339.831,-56.05
1339.846,-56.04
1339.861,-55.96
1339.876,-55.74
1339.891,-55.74
1339.906,-56.09
1339.921,-55.95
1339.936,-55.71
1339.951,-55.85
1339.966,-56.12
1339.981,-55.78
1339.996,-55.79
1340.011,-56.08
1340.026,-55.96
1340.041,-55.76
1340.056,-55.93
1340.071,-56.28
1340.086,-56.07
1340.101,-55.99
1340.116,-56.19
1340.131,-56.27
1340.146,-56.13
1340.161,-56.16
1340.176,-56.16
1340.191,-56.07
1340.206,-56.09
1340.221,-56.2
1340.236,-56.15
1340.251,-56.1
1340.266,-56.03
1340.281,-56.04
1340.296,-55.91
1340.311,-56.03
1340.326,-55.96
1340.341,-56.0
1340.356,-55.97
1340.371,-56.01
1340.386,-56.1
1340.401,-56.0
1340.416,-56.04
1340.431,-56.02
1340.446,-56.03
1340.461,-56.01
1340.476,-55.98
1340.491,-55.92
1340.506,-55.93
1340.521,-55.9
1340.536,-55.91
1340.551,-55.93
1340.566,-55.65
1340.581,-55.91
1340.596,-56.11
1340.611,-55.81
1340.626,-55.76
1340.641,-56.08
1340.656,-56.01
1340.671,-55.8
1340.686,-55.91
1340.701,-56.23
1340.716,-55.89
1340.731,-55.81
1340.746,-56.14
1340.761,-56.06
1340.776,-55.73
1340.791,-55.83
1340.806,-56.07
1340.821,-55.87
1340.836,-55.6
1340.851,-55.86
1340.866,-56.02
1340.881,-55.93
1340.896,-56.02
1340.911,-56.04
1340.926,-55.97
1340.941,-56.02
1340.956,-56.14
1340.971,-56.17
1340.986,-56.11
1341.001,-56.46
1341.016,-56.37
1341.031,-56.15
1341.046,-56.27
1341.061,-56.5
1341.076,-56.07
1341.091,-55.96
1341.106,-56.14
1341.121,-56.29
1341.136,-55.87
1341.151,-56.0
1341.167,-56.34
1341.181,-56.09
1341.196,-55.96
1341.211,-56.11
1341.226,-56.34
1341.241,-55.96
1341.256,-56.06
1341.271,-56.4
1341.286,-56.29
1341.302,-56.14
1341.316,-56.3
1341.331,-56.62
1341.346,-56.29
1341.361,-56.18
1341.376,-56.42
1341.391,-56.4
1341.406,-56.23
1341.422,-56.46
1341.437,-56.48
1341.452,-56.19
1341.466,-56.21
1341.481,-56.4
1341.496,-56.34
1341.511,-56.14
1341.526,-56.39
1341.542,-56.49
1341.557,-56.22
1341.572,-56.46
1341.587,-56.63
1341.601,-56.26
1341.616,-56.27
1341.631,-56.7
1341.646,-56.58
1341.661,-56.36
1341.677,-56.54
1341.692,-56.82
1341.707,-56.45
1341.722,-56.48
1341.737,-56.77
1341.751,-56.66
1341.766,-56.38
1341.781,-56.51
1341.797,-56.78
1341.812,-56.49
1341.827,-56.33
1341.842,-56.62
1341.857,-56.75
1341.872,-56.41
1341.887,-56.5
1341.901,-56.94
1341.917,-56.67
1341.932,-56.53
1341.947,-56.67
1341.962,-56.83
1341.977,-56.37
1341.992,-56.44
1342.007,-56.39
1342.022,-56.3
1342.036,-56.27
1342.052,-56.29
1342.067,-56.1
1342.082,-56.15
1342.097,-56.39
1342.112,-56.41
1342.127,-56.03
1342.142,-56.15
1342.157,-56.5
1342.172,-56.19
1342.187,-56.12
1342.202,-56.3
1342.217,-56.53
1342.232,-56.15
1342.247,-56.27
1342.262,-56.55
1342.277,-56.28
1342.292,-56.08
1342.307,-56.28
1342.322,-56.5
1342.337,-56.13
1342.352,-56.07
1342.367,-56.36
1342.382,-56.43
1342.397,-56.18
1342.412,-56.31
1342.427,-56.35
1342.442,-56.31
1342.457,-56.29
1342.472,-56.5
1342.487,-56.49
1342.502,-56.49
1342.517,-56.57
1342.532,-56.5
1342.547,-56.35
1342.562,-56.3
1342.577,-56.54
1342.592,-56.4
1342.607,-56.3
1342.622,-56.34
1342.637,-56.41
1342.652,-56.24
1342.667,-56.23
1342.682,-56.35
1342.697,-56.03
1342.712,-56.04
1342.727,-56.3
1342.742,-56.17
1342.757,-55.96
1342.772,-56.16
1342.787,-56.46
1342.802,-56.16
1342.817,-56.06
1342.832,-56.31
1342.847,-56.39
1342.862,-56.08
1342.877,-56.11
1342.892,-56.41
1342.907,-56.1
1342.922,-55.9
1342.937,-56.07
1342.952,-56.2
1342.967,-55.92
1342.982,-55.88
1342.997,-56.12
1343.012,-56.11
1343.027,-55.86
1343.042,-55.97
1343.057,-56.25
1343.072,-56.11
1343.087,-56.21
1343.102,-56.17
1343.117,-55.95
1343.132,-56.13
1343.147,-56.53
1343.162,-56.21
1343.177,-56.06
1343.192,-56.28
1343.207,-56.38
1343.222,-56.08
1343.237,-56.15
1343.252,-56.42
1343.267,-56.12
1343.282,-55.96
1343.297,-56.22
1343.312,-56.36
1343.327,-56.0
1343.342,-55.97
1343.357,-56.33
1343.372,-56.31
1343.387,-55.98
1343.402,-56.15
1343.417,-56.45
1343.432,-56.09
1343.447,-55.97
1343.462,-56.35
1343.477,-56.29
1343.492,-56.04
1343.507,-56.04
1343.522,-56.12
1343.537,-55.78
1343.552,-55.89
1343.567,-56.25
1343.582,-56.02
1343.597,-55.85
1343.612,-56.14
1343.627,-56.27
1343.642,-55.91
1343.657,-56.04
1343.672,-56.36
1343.687,-56.12
1343.702,-56.21
1343.717,-56.51
1343.732,-56.35
1343.747,-56.22
1343.762,-56.36
1343.777,-56.54
1343.792,-56.2
1343.807,-56.14
1343.822,-56.45
1343.837,-56.43
1343.852,-56.19
1343.867,-56.29
1343.882,-56.59
1343.897,-56.22
1343.912,-56.13
1343.927,-56.44
1343.942,-56.28
1343.957,-56.11
1343.972,-56.35
1343.987,-56.52
1344.002,-56.31
1344.017,-56.34
1344.032,-56.6
1344.047,-56.46
1344.062,-56.19
1344.077,-56.49
1344.092,-56.44
1344.107,-56.18
1344.122,-56.32
1344.137,-56.59
1344.152,-56.14
1344.167,-56.07
1344.182,-56.46
1344.197,-56.42
1344.212,-56.12
1344.227,-56.24
1344.242,-56.55
1344.257,-56.22
1344.272,-56.07
1344.287,-56.44
1344.302,-56.54
1344.317,-56.21
1344.332,-56.32
1344.347,-56.75
1344.362,-56.55
1344.377,-56.53
1344.392,-56.75
1344.407,-56.66
1344.422,-56.36
1344.437,-56.55
1344.452,-56.73
1344.467,-56.42
1344.482,-56.36
1344.497,-56.61
1344.512,-56.55
1344.527,-56.4
1344.542,-56.73
1344.557,-56.83
1344.572,-56.47
1344.587,-56.46
1344.602,-56.75
1344.617,-56.54
1344.632,-56.39
1344.647,-56.59
1344.662,-56.74
1344.677,-56.35
1344.692,-56.37
1344.707,-56.55
1344.722,-56.4
1344.737,-56.2
1344.752,-56.28
1344.767,-56.52
1344.782,-56.19
1344.797,-56.45
1344.812,-56.63
1344.827,-56.32
1344.842,-56.24
1344.857,-56.61
1344.872,-56.53
1344.887,-56.16
1344.902,-56.39
1344.917,-56.72
1344.932,-56.4
1344.947,-56.5
1344.962,-56.86
1344.977,-56.62
1344.992,-56.45
1345.007,-56.59
1345.022,-56.72
1345.037,-56.33
1345.052,-56.4
1345.067,-56.77
1345.082,-56.5
1345.097,-56.3
1345.112,-56.49
1345.127,-56.81
1345.142,-56.54
1345.157,-56.53
1345.172,-56.81
1345.187,-56.79
1345.202,-56.5
1345.217,-56.95
1345.232,-56.89
1345.247,-56.51
1345.262,-56.57
1345.277,-56.97
1345.292,-56.64
1345.307,-56.43
1345.322,-56.73
1345.337,-56.69
1345.352,-56.27
1345.367,-56.31
1345.382,-56.41
1345.397,-56.09
1345.412,-56.17
1345.427,-56.39
1345.442,-56.23
1345.457,-56.01
1345.472,-56.2
1345.487,-56.47
1345.502,-56.14
1345.517,-56.12
1345.532,-56.39
1345.547,-56.4
1345.562,-56.03
1345.577,-56.11
1345.592,-56.54
1345.607,-56.09
1345.622,-56.15
1345.637,-56.36
1345.652,-56.31
1345.667,-56.03
1345.682,-56.31
1345.697,-56.4
1345.712,-56.04
1345.727,-56.02
1345.742,-56.3
1345.757,-56.26
1345.772,-55.95
1345.787,-56.21
1345.802,-56.14
1345.817,-55.91
1345.832,-56.1
1345.847,-56.37
1345.862,-56.09
1345.877,-56.0
1345.892,-56.17
1345.907,-55.99
1345.922,-55.81
1345.937,-56.11
1345.952,-56.06
1345.967,-55.75
1345.982,-55.96
1345.997,-56.11
1346.012,-56.0
1346.027,-55.72
1346.042,-56.02
1346.057,-56.11
1346.072,-55.79
1346.087,-55.84
1346.102,-56.16
1346.117,-56.12
1346.132,-55.86
1346.147,-55.93
1346.162,-56.1
1346.177,-55.95
1346.192,-55.93
1346.207,-55.93
1346.222,-55.68
1346.237,-55.87
1346.252,-55.99
1346.267,-55.85
1346.282,-55.73
1346.297,-56.03
1346.312,-56.01
1346.327,-55.75
1346.342,-55.84
1346.357,-56.05
1346.372,-55.96
1346.387,-55.69
1346.402,-55.95
1346.417,-55.95
1346.432,-55.8
1346.447,-55.83
1346.462,-56.13
1346.477,-56.04
1346.492,-55.98
1346.507,-55.89
1346.522,-55.94
1346.537,-56.03
1346.552,-55.83
1346.567,-55.93
1346.582,-56.2
1346.597,-56.11
1346.612,-56.13
1346.627,-56.04
1346.642,-56.13
1346.657,-56.21
1346.672,-56.16
1346.687,-56.01
1346.702,-56.15
1346.717,-56.29
1346.732,-56.23
1346.747,-56.16
1346.762,-56.33
1346.777,-56.33
1346.792,-56.23
1346.807,-56.26
1346.822,-56.28
1346.837,-56.16
1346.852,-56.12
1346.867,-56.2
1346.882,-56.15
1346.897,-56.07
1346.912,-56.25
1346.927,-56.16
1346.942,-55.99
1346.957,-56.25
1346.972,-56.26
1346.987,-56.08
1347.002,-56.08
1347.017,-56.3
1347.032,-56.28
1347.047,-56.22
1347.062,-56.38
1347.077,-56.43
1347.092,-56.3
1347.107,-56.2
1347.122,-56.3
1347.137,-56.35
1347.152,-56.21
1347.167,-56.33
1347.182,-56.38
1347.197,-56.05
1347.212,-56.26
1347.227,-56.55
1347.242,-56.15
1347.257,-56.02
1347.272,-56.4
1347.287,-56.42
1347.302,-56.11
1347.317,-56.24
1347.332,-56.25
1347.347,-56.2
1347.362,-56.31
1347.377,-56.45
1347.392,-56.41
1347.407,-56.31
1347.422,-56.59
1347.437,-56.48
1347.452,-56.37
1347.467,-56.35
1347.482,-56.55
1347.497,-56.17
1347.512,-56.26
1347.527,-56.56
1347.542,-56.35
1347.557,-56.23
1347.572,-56.42
1347.587,-56.49
1347.602,-56.11
1347.617,-56.2
1347.632,-56.61
1347.647,-56.24
1347.662,-56.25
1347.677,-56.56
1347.692,-56.48
1347.707,-56.08
1347.722,-56.26
1347.737,-56.46
1347.752,-56.25
1347.767,-56.03
1347.782,-56.38
1347.797,-56.31
1347.812,-56.13
1347.827,-56.26
1347.842,-56.57
1347.857,-56.37
1347.872,-56.42
1347.887,-56.47
1347.902,-56.37
1347.917,-56.53
1347.932,-56.86
1347.947,-56.78
1347.962,-56.48
1347.977,-56.8
1347.992,-56.87
1348.007,-56.57
1348.022,-56.35
1348.037,-56.76
1348.052,-56.57
1348.067,-56.17
1348.082,-56.35
1348.097,-56.32
1348.112,-56.22
1348.127,-56.37
1348.142,-56.34
1348.157,-56.27
1348.172,-56.18
1348.187,-56.36
1348.202,-56.41
1348.217,-56.29
1348.232,-56.34
1348.247,-56.44
1348.262,-56.43
1348.277,-56.36
1348.292,-56.47
1348.307,-56.42
1348.322,-56.57
1348.337,-56.65
1348.352,-56.62
1348.367,-56.42
1348.382,-56.5
1348.397,-56.53
1348.412,-56.46
1348.427,-56.45
1348.442,-56.56
1348.457,-56.56
1348.472,-56.49
1348.487,-56.62
1348.502,-56.68
1348.517,-56.64
1348.532,-56.56
1348.547,-56.67
1348.562,-56.6
1348.577,-56.86
1348.592,-56.5
1348.607,-56.51
1348.622,-56.74
1348.637,-56.51
1348.652,-56.5
1348.667,-56.39
1348.682,-56.41
1348.697,-56.48
1348.712,-56.57
1348.727,-56.61
1348.742,-56.64
1348.757,-56.55
1348.772,-56.62
1348.787,-56.6
1348.802,-56.7
1348.817,-56.55
1348.832,-56.59
1348.847,-56.61
1348.862,-56.61
1348.877,-56.57
1348.892,-56.57
1348.907,-56.65
1348.922,-56.51
1348.937,-56.56
1348.952,-56.52
1348.967,-56.47
1348.982,-56.43
1348.997,-56.44
1349.012,-56.42
1349.027,-56.47
1349.042,-56.46
1349.057,-56.54
1349.072,-56.62
1349.087,-56.54
1349.102,-56.88
1349.117,-56.89
1349.132,-56.55
1349.147,-56.81
1349.162,-56.82
1349.177,-56.82
1349.193,-56.79
1349.207,-56.64
1349.222,-56.67
1349.237,-56.59
1349.252,-56.5
1349.267,-56.49
1349.282,-56.52
1349.297,-56.51
1349.313,-56.71
1349.328,-56.38
1349.343,-56.48
1349.357,-56.64
1349.372,-56.59
1349.387,-56.32
1349.402,-56.65
1349.417,-56.85
1349.432,-56.53
1349.448,-56.43
1349.463,-56.4
1349.478,-56.27
1349.492,-56.25
1349.507,-56.19
1349.522,-56.19
1349.537,-56.22
1349.552,-56.24
1349.568,-56.23
1349.583,-55.97
1349.598,-56.24
1349.613,-56.37
1349.628,-56.15
1349.642,-56.09
1349.657,-56.46
1349.672,-56.42
1349.688,-56.14
1349.703,-56.16
1349.718,-56.11
1349.733,-56.12
1349.748,-56.09
1349.763,-56.09
1349.777,-56.13
1349.792,-56.11
1349.807,-56.13
1349.823,-56.2
1349.838,-56.07
1349.853,-56.06
1349.868,-56.12
1349.883,-55.9
1349.898,-55.84
1349.913,-56.16
1349.927,-56.17
1349.943,-56.15
1349.958,-56.12
1349.973,-56.15
1349.988,-56.14
1350.003,-56.26
1350.018,-56.24
1350.033,-56.3
1350.048,-56.3
1350.063,-56.26
1350.078,-56.13
1350.093,-56.24
1350.108,-56.27
1350.123,-56.18
1350.138,-56.2
1350.153,-56.08
1350.168,-56.06
1350.183,-56.18
1350.198,-56.19
1350.213,-56.21
1350.228,-56.28
1350.243,-56.27
1350.258,-56.36
1350.273,-56.35
1350.288,-56.34
1350.303,-56.36
1350.318,-56.3
1350.333,-56.2
1350.348,-56.25
1350.363,-56.36
1350.378,-56.24
1350.393,-56.55
1350.408,-56.29
1350.423,-56.16
1350.438,-56.27
1350.453,-56.45
1350.468,-56.5
1350.483,-56.52
1350.498,-56.5
1350.513,-56.54
1350.528,-56.46
1350.543,-56.43
1350.558,-56.36
1350.573,-56.35
1350.588,-56.51
1350.603,-56.49
1350.618,-56.52
1350.633,-56.52
1350.648,-56.82
1350.663,-56.45
1350.678,-56.42
1350.693,-56.66
1350.708,-56.64
1350.723,-56.57
1350.738,-56.53
1350.753,-56.52
1350.768,-56.55
1350.783,-56.53
1350.798,-56.56
1350.813,-56.52
1350.828,-56.47
1350.843,-56.57
1350.858,-56.52
1350.873,-56.56
1350.888,-56.62
1350.903,-56.71
1350.918,-56.68
1350.933,-56.67
1350.948,-56.65
1350.963,-56.59
1350.978,-56.54
1350.993,-56.67
1351.008,-56.64
1351.023,-56.56
1351.038,-56.49
1351.053,-56.57
1351.068,-56.55
1351.083,-56.57
1351.098,-56.63
1351.113,-56.58
1351.128,-56.59
1351.143,-56.53
1351.158,-56.45
1351.173,-56.82
1351.188,-56.71
1351.203,-56.39
1351.218,-56.59
1351.233,-56.78
1351.248,-56.8
1351.263,-56.88
1351.278,-56.87
1351.293,-56.91
1351.308,-56.84
1351.323,-56.71
1351.338,-56.78
1351.353,-56.73
1351.368,-56.7
1351.383,-56.71
1351.398,-56.48
1351.413,-56.59
1351.428,-56.8
1351.443,-56.65
1351.458,-56.46
1351.473,-56.69
1351.488,-56.82
1351.503,-56.63
1351.518,-56.64
1351.533,-56.64
1351.548,-56.88
1351.563,-56.85
1351.578,-56.82
1351.593,-56.7
1351.608,-56.69
1351.623,-56.68
1351.638,-56.59
1351.653,-56.35
1351.668,-56.54
1351.683,-56.62
1351.698,-56.4
1351.713,-56.52
1351.728,-56.51
1351.743,-56.57
1351.758,-56.63
1351.773,-56.61
1351.788,-56.69
1351.803,-56.67
1351.818,-56.62
1351.833,-56.55
1351.848,-56.65
1351.863,-56.72
1351.878,-56.67
1351.893,-56.56
1351.908,-56.88
1351.923,-56.49
1351.938,-56.49
1351.953,-56.54
1351.968,-56.53
1351.983,-56.49
1351.998,-56.47
1352.013,-56.47
1352.028,-56.34
1352.043,-56.44
1352.058,-56.38
1352.073,-56.37
1352.088,-56.47
1352.103,-56.78
1352.118,-56.52
1352.133,-56.21
1352.148,-56.43
1352.163,-56.73
1352.178,-56.43
1352.193,-56.36
1352.208,-56.62
1352.223,-56.47
1352.238,-56.29
1352.253,-56.29
1352.268,-56.24
1352.283,-56.18
1352.298,-56.46
1352.313,-56.48
1352.328,-56.23
1352.343,-56.43
1352.358,-56.77
1352.373,-56.48
1352.388,-56.36
1352.403,-56.66
1352.418,-56.72
1352.433,-56.35
1352.448,-56.43
1352.463,-56.47
1352.478,-56.14
1352.493,-56.3
1352.508,-56.56
1352.523,-56.28
1352.538,-56.43
1352.553,-56.57
1352.568,-56.3
1352.583,-56.28
1352.598,-56.41
1352.613,-56.63
1352.628,-56.26
1352.643,-56.32
1352.658,-56.65
1352.673,-56.47
1352.688,-56.4
1352.703,-56.89
1352.718,-56.55
1352.733,-56.52
1352.748,-56.87
1352.763,-56.81
1352.778,-56.48
1352.793,-56.52
1352.808,-56.74
1352.823,-56.56
1352.838,-56.49
1352.853,-56.72
1352.868,-56.68
1352.883,-56.43
1352.898,-56.57
1352.913,-56.32
1352.928,-56.26
1352.943,-56.58
1352.958,-56.54
1352.973,-56.26
1352.988,-56.35
1353.003,-56.75
1353.018,-56.49
1353.033,-56.4
1353.048,-56.67
1353.063,-56.85
1353.078,-56.5
1353.093,-56.41
1353.108,-56.31
1353.123,-56.27
1353.138,-56.58
1353.153,-56.83
1353.168,-56.45
1353.183,-56.32
1353.198,-56.61
1353.213,-56.64
1353.228,-56.4
1353.243,-56.47
1353.258,-56.81
1353.273,-56.53
1353.288,-56.45
1353.303,-56.43
1353.318,-56.29
1353.333,-56.35
1353.348,-56.36
1353.363,-56.1
1353.378,-55.92
1353.393,-56.17
1353.408,-56.23
1353.423,-55.86
1353.438,-55.95
1353.453,-56.15
1353.468,-56.15
1353.483,-56.09
1353.498,-56.02
1353.513,-56.1
1353.528,-56.04
1353.543,-55.99
1353.558,-55.95
1353.573,-56.12
1353.588,-56.08
1353.603,-56.38
1353.618,-56.06
1353.633,-56.03
1353.648,-56.31
1353.663,-56.21
1353.678,-56.09
1353.693,-56.1
1353.708,-56.08
1353.723,-56.06
1353.738,-56.01
1353.753,-55.91
1353.768,-55.74
1353.783,-55.76
1353.798,-56.04
1353.813,-55.94
1353.828,-55.77
1353.843,-55.91
1353.858,-56.09
1353.873,-55.89
1353.888,-55.91
1353.903,-56.13
1353.918,-56.2
1353.933,-56.19
1353.948,-56.22
1353.963,-56.01
1353.978,-55.95
1353.993,-56.23
1354.008,-56.08
1354.023,-55.93
1354.038,-55.93
1354.053,-56.07
1354.068,-55.92
1354.083,-55.82
1354.098,-56.06
1354.113,-56.22
1354.128,-56.0
1354.143,-56.15
1354.158,-55.96
1354.173,-55.86
1354.188,-56.1
1354.203,-56.24
1354.218,-55.98
1354.233,-56.0
1354.248,-56.16
1354.263,-56.12
1354.278,-55.91
1354.293,-55.99
1354.308,-56.12
1354.323,-55.88
1354.338,-56.05
1354.353,-56.24
1354.368,-56.06
1354.383,-56.2
1354.398,-56.39
1354.413,-56.12
1354.428,-56.2
1354.443,-56.35
1354.458,-56.46
1354.473,-56.25
1354.488,-56.37
1354.503,-56.69
1354.518,-56.21
1354.533,-56.31
1354.548,-56.68
1354.563,-56.5
1354.578,-56.21
1354.593,-56.48
1354.608,-56.26
1354.623,-56.17
1354.638,-56.31
1354.653,-56.44
1354.668,-56.21
1354.683,-56.14
1354.698,-56.39
1354.713,-56.15
1354.728,-56.05
1354.743,-56.42
1354.758,-56.45
1354.773,-56.32
1354.788,-56.69
1354.803,-56.73
1354.818,-56.4
1354.833,-56.52
1354.848,-56.89
1354.863,-56.57
1354.878,-56.63
1354.893,-56.87
1354.908,-56.58
1354.923,-56.35
1354.938,-56.66
1354.953,-56.48
1354.968,-56.42
1354.983,-56.64
1354.998,-56.83
1355.013,-56.57
1355.028,-56.53
1355.043,-56.86
1355.058,-56.8
1355.073,-56.71
1355.088,-57.12
1355.103,-57.05
1355.118,-56.65
1355.133,-57.01
1355.148,-56.89
1355.163,-56.68
1355.178,-56.81
1355.193,-57.11
1355.208,-56.74
1355.223,-56.59
1355.238,-56.89
1355.253,-56.8
1355.268,-56.48
1355.283,-56.82
1355.298,-56.98
1355.313,-56.54
1355.328,-56.79
1355.343,-56.97
1355.358,-56.66
1355.373,-56.6
1355.388,-56.83
1355.403,-56.68
1355.418,-56.48
1355.433,-56.57
1355.448,-56.67
1355.463,-56.27
1355.478,-56.39
1355.493,-56.62
1355.508,-56.22
1355.523,-56.32
1355.538,-56.61
1355.553,-56.3
1355.568,-56.25
1355.583,-56.5
1355.598,-56.53
1355.613,-56.26
1355.628,-56.57
1355.643,-56.66
1355.658,-56.19
1355.673,-56.39
1355.688,-56.76
1355.703,-56.54
1355.718,-56.45
1355.733,-56.7
1355.748,-56.55
1355.763,-56.31
1355.778,-56.46
1355.793,-56.53
1355.808,-56.12
1355.823,-56.42
1355.838,-56.63
1355.853,-56.26
1355.868,-56.21
1355.883,-56.47
1355.898,-56.22
1355.913,-56.13
1355.928,-56.34
1355.943,-56.41
1355.958,-56.25
1355.973,-56.23
1355.988,-56.48
1356.003,-56.04
1356.018,-56.04
1356.033,-56.33
1356.048,-56.15
1356.063,-55.96
1356.078,-56.08
1356.093,-55.91
1356.108,-55.8
1356.123,-55.88
1356.138,-56.01
1356.153,-55.76
1356.168,-55.74
1356.183,-56.05
1356.198,-55.69
1356.213,-55.63
1356.228,-56.01
1356.243,-55.84
1356.258,-55.73
1356.273,-55.94
1356.288,-55.93
1356.303,-55.76
1356.318,-55.88
1356.333,-56.08
1356.348,-55.93
1356.363,-55.74
1356.378,-56.18
1356.393,-56.01
1356.408,-55.75
1356.423,-56.14
1356.438,-56.1
1356.453,-55.96
1356.468,-56.04
1356.483,-56.26
1356.498,-55.97
1356.513,-56.02
1356.528,-56.23
1356.543,-56.14
1356.558,-56.05
1356.573,-56.42
1356.588,-56.32
1356.603,-55.93
1356.618,-56.21
1356.633,-56.16
1356.648,-55.94
1356.663,-56.17
1356.678,-56.3
1356.693,-55.98
1356.708,-55.89
1356.723,-56.14
1356.738,-56.13
1356.753,-55.97
1356.768,-56.32
1356.783,-56.26
1356.798,-55.93
1356.813,-56.15
1356.828,-56.14
1356.843,-55.81
1356.858,-55.88
1356.873,-56.2
1356.888,-55.95
1356.903,-55.77
1356.918,-56.1
1356.933,-56.04
1356.948,-55.79
1356.963,-56.11
1356.978,-56.15
1356.993,-55.84
1357.008,-55.95
1357.023,-56.24
1357.038,-55.95
1357.053,-55.87
1357.068,-56.19
1357.083,-56.15
1357.098,-55.9
1357.113,-55.99
1357.128,-55.99
1357.143,-55.71
1357.158,-56.02
1357.173,-56.18
1357.188,-55.85
1357.203,-55.94
1357.219,-56.26
1357.233,-55.98
1357.248,-55.82
1357.263,-56.1
1357.278,-56.24
1357.293,-55.87
1357.308,-56.1
1357.323,-56.13
1357.339,-55.82
1357.354,-55.79
1357.369,-56.14
1357.383,-55.83
1357.398,-55.79
1357.413,-56.16
1357.428,-55.91
1357.443,-55.82
1357.458,-55.96
1357.474,-56.2
1357.489,-55.89
1357.504,-56.19
1357.518,-56.21
1357.533,-56.06
1357.548,-55.94
1357.563,-56.26
1357.578,-55.85
1357.594,-55.76
1357.609,-56.12
1357.624,-56.11
1357.639,-55.89
1357.654,-56.17
1357.668,-56.17
1357.683,-55.91
1357.698,-56.09
1357.714,-56.27
1357.729,-56.09
1357.744,-56.02
1357.759,-56.26
1357.774,-55.89
1357.789,-55.9
1357.803,-56.16
1357.818,-55.94
1357.833,-55.83
1357.849,-56.2
1357.864,-56.19
1357.879,-55.87
1357.894,-55.87
1357.909,-56.17
1357.924,-55.88
1357.939,-55.89
1357.953,-56.21
1357.969,-55.83
1357.984,-55.95
1357.999,-56.18
1358.014,-56.02
1358.029,-55.94
1358.044,-56.25
1358.059,-56.27
1358.074,-56.05
1358.089,-56.08
1358.104,-56.29
1358.119,-56.33
1358.134,-56.62
1358.149,-56.65
1358.164,-56.37
1358.179,-56.55
1358.194,-56.59
1358.209,-56.52
1358.224,-56.36
1358.239,-56.5
1358.254,-56.48
1358.269,-56.45
1358.284,-56.14
1358.299,-56.24
1358.314,-56.13
1358.329,-56.33
1358.344,-56.41
1358.359,-56.31
1358.374,-56.37
1358.389,-56.38
1358.404,-56.36
1358.419,-56.24
1358.434,-56.09
1358.449,-56.11
1358.464,-56.27
1358.479,-56.16
1358.494,-56.16
1358.509,-55.92
1358.524,-56.13
1358.539,-56.21
1358.554,-56.13
1358.569,-56.03
1358.584,-56.27
1358.599,-56.27
1358.614,-56.37
1358.629,-56.21
1358.644,-56.3
1358.659,-56.19
1358.674,-56.34
1358.689,-56.3
1358.704,-56.13
1358.719,-56.29
1358.734,-56.34
1358.749,-56.53
1358.764,-56.41
1358.779,-56.33
1358.794,-56.46
1358.809,-56.52
1358.824,-56.68
1358.839,-56.64
1358.854,-56.44
1358.869,-56.55
1358.884,-56.61
1358.899,-56.58
1358.914,-56.35
1358.929,-56.35
1358.944,-56.62
1358.959,-56.49
1358.974,-56.45
1358.989,-56.31
1359.004,-56.32
1359.019,-56.49
1359.034,-56.34
1359.049,-56.18
1359.064,-56.05
1359.079,-56.11
1359.094,-56.23
1359.109,-56.12
1359.124,-56.02
1359.139,-55.87
1359.154,-56.1
1359.169,-55.98
1359.184,-55.73
1359.199,-55.86
1359.214,-56.08
1359.229,-56.07
1359.244,-56.1
1359.259,-56.16
1359.274,-56.12
1359.289,-56.32
1359.304,-56.51
1359.319,-56.35
1359.334,-56.11
1359.349,-56.4
1359.364,-56.43
1359.379,-56.37
1359.394,-56.3
1359.409,-56.3
1359.424,-56.31
1359.439,-56.6
1359.454,-56.63
1359.469,-56.44
1359.484,-56.5
1359.499,-56.62
1359.514,-56.58
1359.529,-56.35
1359.544,-56.28
1359.559,-56.34
1359.574,-56.35
1359.589,-56.29
1359.604,-56.38
1359.619,-56.08
1359.634,-56.24
1359.649,-56.29
1359.664,-56.13
1359.679,-56.05
1359.694,-56.09
1359.709,-56.14
1359.724,-56.1
1359.739,-56.14
1359.754,-55.89
1359.769,-55.75
1359.784,-56.05
1359.799,-55.98
1359.814,-55.73
1359.829,-55.88
1359.844,-56.09
1359.859,-56.07
1359.874,-56.17
1359.889,-56.17
1359.904,-56.14
1359.919,-56.34
1359.934,-56.59
1359.949,-56.33
1359.964,-56.22
1359.979,-56.52
1359.994,-56.58
1360.009,-56.6
1360.024,-56.63
1360.039,-56.67
1360.054,-56.48
1360.069,-56.91
1360.084,-56.99
1360.099,-56.73
1360.114,-56.77
1360.129,-57.06
1360.144,-56.98
1360.159,-56.68
1360.174,-56.9
1360.189,-56.92
1360.204,-56.85
1360.219,-56.93
1360.234,-56.79
1360.249,-56.44
1360.264,-56.7
1360.279,-56.84
1360.294,-56.55
1360.309,-56.49
1360.324,-56.56
1360.339,-56.55
1360.354,-56.49
1360.369,-56.6
1360.384,-56.32
1360.399,-56.3
1360.414,-56.67
1360.429,-56.6
1360.444,-56.33
1360.459,-56.55
1360.474,-56.45
1360.489,-56.44
1360.504,-56.62
1360.519,-56.62
1360.534,-56.48
1360.549,-56.69
1360.564,-56.94
1360.579,-56.72
1360.594,-56.47
1360.609,-56.75
1360.624,-56.72
1360.639,-56.71
1360.654,-56.83
1360.669,-56.9
1360.684,-56.66
1360.699,-56.92
1360.714,-57.12
1360.729,-56.75
1360.744,-56.8
1360.759,-56.85
1360.774,-56.82
1360.789,-56.83
1360.804,-56.82
1360.819,-56.75
1360.834,-56.68
1360.849,-56.63
1360.864,-56.62
1360.879,-56.21
1360.894,-56.33
1360.909,-56.28
1360.924,-56.21
1360.939,-56.25
1360.954,-56.34
1360.969,-56.27
1360.984,-56.18
1360.999,-56.35
1361.014,-56.02
1361.029,-56.17
1361.044,-56.22
1361.059,-56.16
1361.074,-56.05
1361.089,-56.18
1361.104,-56.1
1361.119,-56.05
1361.134,-56.06
1361.149,-56.07
1361.164,-56.16
1361.179,-56.36
1361.194,-56.29
1361.209,-56.19
1361.224,-56.14
1361.239,-56.23
1361.254,-56.3
1361.269,-56.15
1361.284,-56.25
1361.299,-56.25
1361.314,-56.46
1361.329,-56.58
1361.344,-56.54
1361.359,-56.5
1361.374,-56.59
1361.389,-56.59
1361.404,-56.58
1361.419,-56.45
1361.434,-56.3
1361.449,-56.38
1361.464,-56.39
1361.479,-56.45
1361.494,-56.37
1361.509,-56.26
1361.524,-56.37
1361.539,-56.35
1361.554,-56.28
1361.569,-56.07
1361.584,-56.05
1361.599,-56.43
1361.614,-56.25
1361.629,-56.25
1361.644,-56.18
1361.659,-56.23
1361.674,-56.12
1361.689,-56.21
1361.704,-56.17
1361.719,-55.93
1361.734,-56.07
1361.749,-56.17
1361.764,-56.11
1361.779,-56.12
1361.794,-56.13
1361.809,-56.23
1361.824,-56.29
1361.839,-56.51
1361.854,-56.31
1361.869,-56.2
1361.884,-56.55
1361.899,-56.57
1361.914,-56.61
1361.929,-56.62
1361.944,-56.6
1361.959,-56.59
1361.974,-56.77
1361.989,-56.82
1362.004,-56.54
1362.019,-56.64
1362.034,-56.58
1362.049,-56.51
1362.064,-56.51
1362.079,-56.41
1362.094,-56.5
1362.109,-56.45
1362.124,-56.74
1362.139,-56.61
1362.154,-56.4
1362.169,-56.47
1362.184,-56.39
1362.199,-56.4
1362.214,-56.45
1362.229,-56.56
1362.244,-56.31
1362.259,-56.39
1362.274,-56.65
1362.289,-56.31
1362.304,-56.29
1362.319,-56.23
1362.334,-56.2
1362.349,-56.26
1362.364,-56.18
1362.379,-55.97
1362.394,-55.93
1362.409,-56.17
1362.424,-56.16
1362.439,-56.14
1362.454,-56.13
1362.469,-56.08
1362.484,-56.14
1362.499,-56.14
1362.514,-56.26
1362.529,-55.94
1362.544,-56.07
1362.559,-56.23
1362.574,-56.29
1362.589,-56.34
1362.604,-56.18
1362.619,-56.25
1362.634,-56.2
1362.649,-56.14
1362.664,-56.06
1362.679,-55.91
1362.694,-56.03
1362.709,-56.11
1362.724,-56.19
1362.739,-56.14
1362.754,-55.99
1362.769,-56.16
1362.784,-56.19
1362.799,-56.32
1362.814,-56.06
1362.829,-56.07
1362.844,-55.96
1362.859,-56.12
1362.874,-56.05
1362.889,-55.95
1362.904,-55.9
1362.919,-56.03
1362.934,-56.13
1362.949,-56.12
1362.964,-55.94
1362.979,-55.88
1362.994,-55.86
1363.009,-55.94
1363.024,-55.96
1363.039,-55.9
1363.054,-56.03
1363.069,-56.13
1363.084,-56.36
1363.099,-56.17
1363.114,-56.14
1363.129,-56.02
1363.144,-56.14
1363.159,-56.16
1363.174,-56.07
1363.189,-56.03
1363.204,-55.82
1363.219,-56.03
1363.234,-56.01
1363.249,-56.06
1363.264,-56.02
1363.279,-55.98
1363.294,-56.14
1363.309,-56.22
1363.324,-56.12
1363.339,-55.94
1363.354,-55.87
1363.369,-56.04
1363.384,-56.16
1363.399,-56.25
1363.414,-56.1
1363.429,-56.08
1363.444,-56.14
1363.459,-56.12
1363.474,-56.25
1363.489,-56.05
1363.504,-56.2
1363.519,-56.2
1363.534,-56.24
1363.549,-56.18
1363.564,-56.13
1363.579,-56.21
1363.594,-56.23
1363.609,-56.47
1363.624,-56.25
1363.639,-56.13
1363.654,-56.39
1363.669,-56.45
1363.684,-56.49
1363.699,-56.51
1363.714,-56.48
1363.729,-56.57
1363.744,-56.68
1363.759,-56.94
1363.774,-56.59
1363.789,-56.68
1363.804,-56.58
1363.819,-56.64
1363.834,-56.63
1363.849,-56.64
1363.864,-56.66
1363.879,-56.71
1363.894,-56.89
1363.909,-56.89
1363.924,-56.64
1363.939,-56.61
1363.954,-56.65
1363.969,-56.7
1363.984,-56.69
1363.999,-56.7
1364.014,-56.43
1364.029,-56.63
1364.044,-56.88
1364.059,-56.57
1364.074,-56.46
1364.089,-56.38
1364.104,-56.38
1364.119,-56.31
1364.134,-56.49
1364.149,-56.17
1364.164,-56.16
1364.179,-56.49
1364.194,-56.32
1364.209,-56.31
1364.224,-56.43
1364.239,-56.38
1364.254,-56.29
1364.269,-56.36
1364.284,-56.52
1364.299,-56.08
1364.314,-56.14
1364.329,-56.44
1364.344,-56.25
1364.359,-56.34
1364.374,-56.42
1364.389,-56.39
1364.404,-56.19
1364.419,-56.53
1364.434,-56.36
1364.449,-56.16
1364.464,-56.48
1364.479,-56.41
1364.494,-56.31
1364.509,-56.44
1364.524,-56.43
1364.539,-56.34
1364.554,-56.55
1364.569,-56.84
1364.584,-56.4
1364.599,-56.48
1364.614,-56.55
1364.629,-56.38
1364.644,-56.42
1364.659,-56.52
1364.674,-56.18
1364.689,-56.16
1364.704,-56.48
1364.719,-56.38
1364.734,-56.1
1364.749,-56.25
1364.764,-56.17
1364.779,-56.04
1364.794,-56.41
1364.809,-56.24
1364.824,-55.98
1364.839,-56.19
1364.854,-56.42
1364.869,-55.99
1364.884,-56.07
1364.899,-56.24
1364.914,-55.91
1364.929,-56.1
1364.944,-56.41
1364.959,-56.03
1364.974,-55.9
1364.989,-56.1
1365.004,-56.06
1365.019,-56.07
1365.034,-56.37
1365.049,-56.03
1365.064,-55.92
1365.079,-56.19
1365.094,-56.21
1365.109,-55.91
1365.124,-56.14
1365.139,-56.37
1365.154,-56.19
1365.169,-56.42
1365.184,-56.39
1365.199,-56.14
1365.214,-56.4
1365.229,-56.72
1365.245,-56.41
1365.259,-56.27
1365.274,-56.49
1365.289,-56.05
1365.304,-56.25
1365.319,-56.49
1365.334,-56.19
1365.349,-56.15
1365.365,-56.42
1365.38,-56.48
1365.395,-56.14
1365.409,-56.65
1365.424,-56.43
1365.439,-56.22
1365.454,-56.49
1365.469,-56.65
1365.484,-56.29
1365.5,-56.39
1365.515,-56.45
1365.53,-56.01
1365.544,-56.16
1365.559,-56.31
1365.574,-55.96
1365.589,-56.01
1365.604,-56.28
1365.62,-56.08
1365.635,-56.06
1365.65,-56.41
1365.665,-56.28
1365.68,-56.28
1365.694,-56.54
1365.709,-56.48
1365.724,-56.16
1365.74,-56.32
1365.755,-56.26
1365.77,-55.97
1365.785,-56.26
1365.8,-56.16
1365.815,-56.08
1365.83,-56.23
1365.844,-56.39
1365.859,-56.07
1365.875,-56.3
1365.89,-56.52
1365.905,-56.09
1365.92,-56.19
1365.935,-56.37
1365.95,-56.09
1365.965,-56.02
1365.979,-56.38
1365.995,-56.19
1366.01,-56.06
1366.025,-56.39
1366.04,-56.14
1366.055,-56.1
1366.07,-56.26
1366.085,-56.39
1366.1,-56.25
1366.115,-56.58
1366.13,-56.63
1366.145,-56.18
1366.16,-56.38
1366.175,-56.56
1366.19,-56.18
1366.205,-56.19
1366.22,-56.33
1366.235,-55.94
1366.25,-55.97
1366.265,-56.25
1366.28,-56.07
1366.295,-56.2
1366.31,-56.53
1366.325,-56.37
1366.34,-56.36
1366.355,-56.65
1366.37,-56.46
1366.385,-56.16
1366.4,-56.52
1366.415,-56.3
1366.43,-56.14
1366.445,-56.19
1366.46,-56.14
1366.475,-55.84
1366.49,-56.09
1366.505,-56.28
1366.52,-56.03
1366.535,-56.29
1366.55,-56.48
1366.565,-56.26
1366.58,-56.39
1366.595,-56.62
1366.61,-56.32
1366.625,-56.26
1366.64,-56.59
1366.655,-56.34
1366.67,-56.22
1366.685,-56.37
1366.7,-56.21
1366.715,-55.99
1366.73,-56.36
1366.745,-56.37
1366.76,-56.24
1366.775,-56.43
1366.79,-56.56
1366.805,-56.26
1366.82,-56.44
1366.835,-56.59
1366.85,-56.16
1366.865,-56.31
1366.88,-56.48
1366.895,-56.22
1366.91,-56.25
1366.925,-56.57
1366.94,-56.22
1366.955,-56.2
1366.97,-56.64
1366.985,-56.25
1367.0,-56.18
1367.015,-56.48
1367.03,-56.36
1367.045,-56.21
1367.06,-56.5
1367.075,-56.36
1367.09,-55.96
1367.105,-56.11
1367.12,-56.05
1367.135,-55.88
1367.15,-55.93
1367.165,-56.16
1367.18,-55.71
1367.195,-55.86
1367.21,-56.25
1367.225,-56.01
1367.24,-56.08
1367.255,-56.26
1367.27,-56.16
1367.285,-56.12
1367.3,-56.4
1367.315,-56.0
1367.33,-55.94
1367.345,-56.04
1367.36,-55.87
1367.375,-55.75
1367.39,-55.93
1367.405,-56.03
1367.42,-55.8
1367.435,-55.93
1367.45,-56.05
1367.465,-55.97
1367.48,-56.11
1367.495,-56.19
1367.51,-55.88
1367.525,-55.96
1367.54,-56.21
1367.555,-55.86
1367.57,-55.9
1367.585,-56.0
1367.6,-55.76
1367.615,-55.74
1367.63,-55.93
1367.645,-55.59
1367.66,-55.55
1367.675,-55.81
1367.69,-55.68
1367.705,-55.62
1367.72,-55.82
1367.735,-55.81
1367.75,-55.6
1367.765,-55.9
1367.78,-55.86
1367.795,-55.6
1367.81,-55.76
1367.825,-55.82
1367.84,-55.59
1367.855,-56.02
1367.87,-55.96
1367.885,-55.74
1367.9,-55.81
1367.915,-56.07
1367.93,-55.69
1367.945,-55.75
1367.96,-55.77
1367.975,-55.45
1367.99,-55.58
1368.005,-55.9
1368.02,-55.61
1368.035,-55.41
1368.05,-55.67
1368.065,-55.34
1368.08,-55.51
1368.095,-55.82
1368.11,-55.68
1368.125,-55.5
1368.14,-55.64
1368.155,-55.82
1368.17,-55.51
1368.185,-55.89
1368.2,-55.81
1368.215,-55.44
1368.23,-55.65
1368.245,-55.78
1368.26,-55.54
1368.275,-55.38
1368.29,-55.46
1368.305,-55.21
1368.32,-55.45
1368.335,-55.55
1368.35,-55.39
1368.365,-55.4
1368.38,-55.76
1368.395,-55.69
1368.41,-55.58
1368.425,-55.77
1368.44,-55.61
1368.455,-55.63
1368.47,-55.94
1368.485,-55.98
1368.5,-55.83
1368.515,-55.98
1368.53,-56.0
1368.545,-55.75
1368.56,-56.06
1368.575,-56.09
1368.59,-55.76
1368.605,-55.86
1368.62,-55.83
1368.635,-55.68
1368.65,-55.99
1368.665,-56.09
1368.68,-55.78
1368.695,-55.87
1368.71,-56.23
1368.725,-56.09
1368.74,-56.09
1368.755,-56.24
1368.77,-55.91
1368.785,-56.0
1368.8,-56.24
1368.815,-56.12
1368.83,-55.84
1368.845,-56.14
1368.86,-55.76
1368.875,-55.81
1368.89,-56.07
1368.905,-55.92
1368.92,-55.71
1368.935,-55.95
1368.95,-56.17
1368.965,-56.05
1368.98,-56.49
1368.995,-56.39
1369.01,-56.08
1369.025,-56.34
1369.04,-56.7
1369.055,-56.32
1369.07,-56.42
1369.085,-56.59
1369.1,-56.15
1369.115,-56.24
1369.13,-56.62
1369.145,-56.35
1369.16,-56.18
1369.175,-56.56
1369.19,-56.31
1369.205,-56.2
1369.22,-56.59
1369.235,-56.33
1369.25,-56.13
1369.265,-56.39
1369.28,-56.55
1369.295,-56.42
1369.31,-56.65
1369.325,-56.79
1369.34,-56.53
1369.355,-56.87
1369.37,-56.82
1369.385,-56.4
1369.4,-56.42
1369.415,-56.66
1369.43,-56.39
1369.445,-56.39
1369.46,-56.56
1369.475,-56.16
1369.49,-56.11
1369.505,-56.34
1369.52,-56.09
1369.535,-56.06
1369.55,-56.4
1369.565,-56.01
1369.58,-56.04
1369.595,-56.43
1369.61,-56.14
1369.625,-56.2
1369.64,-56.48
1369.655,-56.47
1369.67,-56.31
1369.685,-56.65
1369.7,-56.62
1369.715,-56.23
1369.73,-56.48
1369.745,-56.48
1369.76,-56.14
1369.775,-56.57
1369.79,-56.55
1369.805,-56.28
1369.82,-56.4
1369.835,-56.78
1369.85,-56.54
1369.865,-56.56
1369.88,-56.75
1369.895,-56.25
1369.91,-56.38
1369.925,-56.68
1369.94,-56.45
1369.955,-56.17
1369.97,-56.45
1369.985,-56.26
1370.0,-56.31
