wavelength_axis,light_level
1250.0,-60.85
1250.015,-61.79
1250.03,-61.03
1250.045,-60.72
1250.06,-60.47
1250.075,-60.66
1250.09,-61.47
1250.105,-60.9
1250.12,-60.66
1250.135,-60.13
1250.15,-60.86
1250.165,-61.32
1250.18,-62.32
1250.195,-61.19
1250.21,-61.14
1250.225,-61.21
1250.24,-61.75
1250.255,-62.3
1250.27,-62.41
1250.285,-61.67
1250.3,-61.23
1250.315,-61.63
1250.33,-62.81
1250.345,-63.79
1250.36,-62.2
1250.375,-62.13
1250.39,-62.37
1250.405,-63.16
1250.42,-63.5
1250.435,-63.04
1250.45,-61.78
1250.465,-61.64
1250.48,-62.66
1250.495,-62.87
1250.51,-63.5
1250.525,-62.24
1250.54,-61.66
1250.555,-61.71
1250.57,-63.04
1250.585,-62.71
1250.6,-61.8
1250.615,-60.83
1250.63,-61.01
1250.645,-61.74
1250.66,-62.75
1250.675,-62.32
1250.69,-61.52
1250.705,-60.85
1250.72,-60.95
1250.735,-62.36
1250.75,-61.65
1250.765,-60.93
1250.78,-60.19
1250.795,-60.55
1250.81,-61.5
1250.825,-61.92
1250.84,-61.34
1250.855,-60.86
1250.87,-60.94
1250.885,-61.19
1250.9,-61.98
1250.915,-61.89
1250.93,-61.41
1250.945,-61.1
1250.96,-61.63
1250.975,-63.04
1250.99,-63.26
1251.005,-62.35
1251.02,-61.11
1251.035,-61.1
1251.05,-61.44
1251.065,-61.69
1251.08,-61.49
1251.095,-60.76
1251.11,-60.49
1251.125,-60.9
1251.14,-61.53
1251.155,-61.63
1251.17,-61.01
1251.185,-60.29
1251.2,-60.31
1251.215,-60.91
1251.23,-60.79
1251.245,-60.24
1251.26,-59.81
1251.275,-59.6
1251.29,-59.7
1251.305,-60.24
1251.32,-60.53
1251.335,-59.89
1251.35,-59.31
1251.365,-59.34
1251.38,-59.81
1251.395,-59.9
1251.41,-60.16
1251.425,-59.57
1251.44,-59.51
1251.455,-60.08
1251.47,-60.54
1251.485,-60.51
1251.5,-60.33
1251.515,-59.71
1251.53,-59.8
1251.545,-60.05
1251.56,-60.52
1251.575,-60.55
1251.59,-59.99
1251.605,-60.15
1251.62,-61.01
1251.635,-61.39
1251.65,-61.02
1251.665,-59.93
1251.68,-59.89
1251.695,-59.87
1251.71,-60.25
1251.725,-60.59
1251.74,-59.83
1251.755,-59.36
1251.77,-59.53
1251.785,-60.29
1251.8,-60.16
1251.815,-59.81
1251.83,-59.36
1251.845,-59.42
1251.86,-59.75
1251.875,-59.93
1251.89,-59.9
1251.905,-59.29
1251.92,-59.2
1251.935,-59.37
1251.95,-60.07
1251.965,-59.7
1251.98,-59.1
1251.995,-58.62
1252.01,-58.82
1252.025,-59.23
1252.04,-59.98
1252.055,-59.73
1252.07,-59.1
1252.085,-59.74
1252.1,-59.93
1252.115,-60.61
1252.13,-60.26
1252.145,-59.86
1252.16,-59.33
1252.175,-59.83
1252.19,-60.09
1252.205,-60.54
1252.22,-60.15
1252.235,-59.57
1252.25,-60.36
1252.265,-60.68
1252.28,-61.35
1252.295,-60.96
1252.31,-60.72
1252.325,-59.99
1252.34,-60.84
1252.355,-61.31
1252.37,-61.9
1252.385,-61.28
1252.4,-60.94
1252.415,-60.89
1252.43,-61.42
1252.445,-62.39
1252.46,-61.52
1252.475,-61.29
1252.49,-60.62
1252.505,-61.27
1252.52,-61.95
1252.535,-61.67
1252.55,-61.41
1252.565,-60.83
1252.58,-60.78
1252.595,-60.96
1252.61,-61.45
1252.625,-60.6
1252.64,-60.44
1252.655,-60.21
1252.67,-61.16
1252.685,-60.73
1252.7,-60.86
1252.715,-60.42
1252.73,-60.26
1252.745,-60.92
1252.76,-60.68
1252.775,-60.98
1252.79,-60.41
1252.805,-60.81
1252.82,-61.07
1252.835,-62.04
1252.85,-61.41
1252.865,-61.21
1252.88,-60.46
1252.895,-60.92
1252.91,-61.28
1252.925,-61.25
1252.94,-60.88
1252.955,-60.14
1252.97,-60.44
1252.985,-60.72
1253.0,-61.47
1253.015,-60.84
1253.03,-60.55
1253.045,-60.41
1253.06,-61.02
1253.075,-61.59
1253.09,-60.6
1253.105,-60.52
1253.12,-59.95
1253.135,-60.58
1253.15,-60.81
1253.165,-61.43
1253.18,-60.56
1253.195,-60.69
1253.21,-60.8
1253.225,-61.32
1253.24,-61.54
1253.255,-60.76
1253.271,-60.5
1253.285,-60.29
1253.3,-60.85
1253.315,-60.59
1253.33,-60.88
1253.345,-60.23
1253.36,-60.25
1253.375,-60.3
1253.391,-60.86
1253.406,-60.57
1253.421,-60.07
1253.435,-60.09
1253.45,-59.67
1253.465,-60.11
1253.48,-59.94
1253.495,-60.23
1253.51,-59.8
1253.526,-59.89
1253.541,-60.21
1253.556,-59.96
1253.571,-60.05
1253.585,-59.8
1253.6,-60.08
1253.615,-59.6
1253.63,-59.97
1253.646,-59.77
1253.661,-60.13
1253.676,-59.61
1253.691,-60.16
1253.706,-60.33
1253.72,-60.27
1253.735,-60.21
1253.75,-59.98
1253.766,-60.82
1253.781,-60.51
1253.796,-60.52
1253.811,-60.22
1253.826,-60.39
1253.841,-59.94
1253.856,-60.43
1253.87,-60.33
1253.885,-60.62
1253.901,-60.22
1253.916,-60.13
1253.931,-60.75
1253.946,-60.47
1253.961,-60.47
1253.976,-60.43
1253.991,-60.91
1254.005,-60.38
1254.021,-60.65
1254.036,-60.44
1254.051,-60.33
1254.066,-60.24
1254.081,-60.42
1254.096,-60.69
1254.111,-60.14
1254.126,-60.35
1254.141,-59.9
1254.156,-60.38
1254.171,-59.91
1254.186,-60.39
1254.201,-60.01
1254.216,-59.76
1254.231,-59.71
1254.246,-60.03
1254.261,-60.14
1254.276,-59.87
1254.291,-60.13
1254.306,-59.84
1254.321,-60.2
1254.336,-60.1
1254.351,-60.17
1254.366,-59.81
1254.381,-59.67
1254.396,-59.61
1254.411,-60.15
1254.426,-60.22
1254.441,-59.86
1254.456,-60.31
1254.471,-60.21
1254.486,-60.53
1254.501,-60.33
1254.516,-60.56
1254.531,-59.81
1254.546,-60.11
1254.561,-60.75
1254.576,-60.68
1254.591,-60.44
1254.606,-59.79
1254.621,-60.48
1254.636,-60.31
1254.651,-60.85
1254.666,-60.16
1254.681,-60.21
1254.696,-59.77
1254.711,-60.23
1254.726,-60.35
1254.741,-60.53
1254.756,-60.06
1254.771,-59.74
1254.786,-60.53
1254.801,-60.44
1254.816,-61.11
1254.831,-60.48
1254.846,-60.58
1254.861,-60.6
1254.876,-61.02
1254.891,-60.87
1254.906,-60.59
1254.921,-60.93
1254.936,-60.46
1254.951,-61.21
1254.966,-61.11
1254.981,-61.07
1254.996,-60.27
1255.011,-60.68
1255.026,-60.87
1255.041,-61.82
1255.056,-61.5
1255.071,-61.11
1255.086,-61.24
1255.101,-61.46
1255.116,-62.29
1255.131,-61.93
1255.146,-62.24
1255.161,-61.46
1255.176,-62.22
1255.191,-61.9
1255.206,-62.36
1255.221,-62.16
1255.236,-61.95
1255.251,-61.8
1255.266,-62.53
1255.281,-62.89
1255.296,-61.98
1255.311,-62.35
1255.326,-61.92
1255.341,-63.12
1255.356,-62.98
1255.371,-63.2
1255.386,-62.94
1255.401,-62.45
1255.416,-62.4
1255.431,-62.3
1255.446,-62.63
1255.461,-61.79
1255.476,-61.68
1255.491,-61.47
1255.506,-62.51
1255.521,-62.47
1255.536,-62.63
1255.551,-61.96
1255.566,-61.41
1255.581,-62.44
1255.596,-62.06
1255.611,-62.84
1255.626,-61.68
1255.641,-62.47
1255.656,-62.14
1255.671,-63.27
1255.686,-63.16
1255.701,-63.44
1255.716,-63.2
1255.731,-63.42
1255.746,-64.22
1255.761,-64.44
1255.776,-64.3
1255.791,-62.57
1255.806,-63.61
1255.821,-63.31
1255.836,-62.98
1255.851,-62.69
1255.866,-61.92
1255.881,-61.86
1255.896,-61.82
1255.911,-63.34
1255.926,-62.42
1255.941,-62.24
1255.956,-62.35
1255.971,-63.14
1255.986,-63.5
1256.001,-63.35
1256.016,-62.77
1256.031,-61.97
1256.046,-61.98
1256.061,-62.24
1256.076,-62.32
1256.091,-61.37
1256.106,-60.77
1256.121,-61.05
1256.136,-61.2
1256.151,-61.53
1256.166,-61.15
1256.181,-60.85
1256.196,-61.23
1256.211,-61.51
1256.226,-61.41
1256.241,-60.84
1256.256,-60.9
1256.271,-60.43
1256.286,-60.63
1256.301,-60.9
1256.316,-60.45
1256.331,-60.13
1256.346,-59.88
1256.361,-60.08
1256.376,-59.9
1256.391,-59.95
1256.406,-60.06
1256.421,-60.05
1256.436,-60.23
1256.451,-60.71
1256.466,-60.56
1256.481,-60.45
1256.496,-61.03
1256.511,-60.66
1256.526,-60.62
1256.541,-60.37
1256.556,-60.77
1256.571,-60.63
1256.586,-60.43
1256.601,-60.71
1256.616,-60.46
1256.631,-60.75
1256.646,-60.62
1256.661,-60.97
1256.676,-60.38
1256.691,-60.5
1256.706,-60.42
1256.721,-60.44
1256.736,-60.31
1256.751,-60.51
1256.766,-60.54
1256.781,-60.43
1256.796,-60.72
1256.811,-60.71
1256.826,-60.5
1256.841,-60.41
1256.856,-60.48
1256.871,-60.41
1256.886,-60.59
1256.901,-60.51
1256.916,-60.2
1256.931,-59.98
1256.946,-60.55
1256.961,-60.67
1256.976,-60.65
1256.991,-60.35
1257.006,-60.32
1257.021,-60.06
1257.036,-60.5
1257.051,-60.98
1257.066,-60.76
1257.081,-60.88
1257.096,-61.01
1257.111,-61.5
1257.126,-61.41
1257.141,-62.0
1257.156,-61.12
1257.171,-61.29
1257.186,-61.52
1257.201,-61.03
1257.216,-60.9
1257.231,-60.52
1257.246,-60.95
1257.261,-60.43
1257.276,-60.75
1257.291,-60.69
1257.306,-61.06
1257.321,-60.87
1257.336,-61.16
1257.351,-61.47
1257.366,-61.38
1257.381,-62.17
1257.396,-61.9
1257.411,-62.31
1257.426,-61.41
1257.441,-61.76
1257.456,-61.24
1257.471,-61.09
1257.486,-61.13
1257.501,-60.54
1257.516,-60.7
1257.531,-60.27
1257.546,-60.83
1257.561,-60.46
1257.576,-60.8
1257.591,-60.94
1257.606,-61.26
1257.621,-61.17
1257.636,-60.97
1257.651,-61.25
1257.666,-60.66
1257.681,-61.23
1257.696,-60.93
1257.711,-61.2
1257.726,-60.48
1257.741,-60.76
1257.756,-60.73
1257.771,-60.16
1257.786,-60.38
1257.801,-60.19
1257.816,-60.28
1257.831,-60.28
1257.846,-60.91
1257.861,-60.73
1257.876,-60.89
1257.891,-60.82
1257.906,-60.94
1257.921,-61.07
1257.936,-61.18
1257.951,-61.01
1257.966,-60.24
1257.981,-60.0
1257.996,-60.02
1258.011,-59.95
1258.026,-60.22
1258.041,-60.34
1258.056,-60.07
1258.071,-60.07
1258.086,-60.14
1258.101,-59.82
1258.116,-60.16
1258.131,-60.27
1258.146,-60.07
1258.161,-60.0
1258.176,-59.9
1258.191,-60.15
1258.206,-60.47
1258.221,-60.36
1258.236,-60.53
1258.251,-60.22
1258.266,-60.46
1258.281,-60.36
1258.296,-60.57
1258.311,-59.81
1258.326,-59.99
1258.341,-59.97
1258.356,-59.98
1258.371,-59.89
1258.386,-59.84
1258.401,-59.89
1258.416,-59.77
1258.431,-60.71
1258.446,-60.46
1258.461,-60.39
1258.476,-60.19
1258.491,-60.27
1258.506,-60.28
1258.521,-60.35
1258.536,-60.26
1258.551,-59.87
1258.566,-60.01
1258.581,-59.97
1258.596,-60.14
1258.611,-59.61
1258.626,-59.73
1258.641,-59.89
1258.656,-59.93
1258.671,-60.33
1258.686,-60.31
1258.701,-60.04
1258.716,-60.03
1258.731,-61.1
1258.746,-61.5
1258.761,-60.9
1258.776,-60.82
1258.791,-60.52
1258.806,-60.99
1258.821,-61.52
1258.836,-61.22
1258.851,-60.16
1258.866,-60.05
1258.881,-60.37
1258.896,-60.47
1258.911,-60.15
1258.926,-59.93
1258.941,-59.71
1258.956,-59.82
1258.971,-60.7
1258.986,-60.9
1259.001,-60.62
1259.016,-60.67
1259.031,-61.23
1259.046,-61.56
1259.061,-61.58
1259.076,-61.35
1259.091,-60.66
1259.106,-61.05
1259.121,-61.31
1259.136,-61.16
1259.151,-60.12
1259.166,-59.89
1259.181,-60.22
1259.196,-60.37
1259.211,-60.49
1259.226,-60.29
1259.241,-59.96
1259.256,-60.1
1259.271,-60.83
1259.286,-61.13
1259.301,-60.77
1259.316,-60.56
1259.331,-60.37
1259.346,-60.94
1259.361,-61.45
1259.376,-61.3
1259.391,-60.29
1259.406,-60.21
1259.421,-60.82
1259.436,-60.63
1259.451,-60.3
1259.466,-59.93
1259.481,-59.86
1259.496,-60.02
1259.511,-60.85
1259.526,-60.62
1259.541,-60.32
1259.556,-60.29
1259.571,-60.9
1259.586,-61.26
1259.601,-61.13
1259.616,-60.6
1259.631,-60.26
1259.646,-60.35
1259.661,-60.59
1259.676,-60.42
1259.691,-59.52
1259.706,-59.37
1259.721,-59.6
1259.736,-59.69
1259.751,-59.34
1259.766,-59.23
1259.781,-59.1
1259.796,-59.26
1259.811,-59.86
1259.826,-59.85
1259.841,-59.52
1259.856,-59.55
1259.871,-60.08
1259.886,-60.29
1259.901,-60.23
1259.916,-60.09
1259.931,-59.8
1259.946,-59.91
1259.961,-60.29
1259.976,-60.14
1259.991,-59.65
1260.006,-59.52
1260.021,-59.4
1260.036,-59.51
1260.051,-59.75
1260.066,-59.78
1260.081,-59.41
1260.096,-59.37
1260.111,-59.78
1260.126,-59.45
1260.141,-59.5
1260.156,-59.67
1260.171,-59.62
1260.186,-59.74
1260.201,-59.61
1260.216,-59.99
1260.231,-59.37
1260.246,-59.39
1260.261,-59.49
1260.276,-59.47
1260.291,-59.73
1260.306,-59.69
1260.321,-59.75
1260.336,-59.96
1260.351,-60.38
1260.366,-59.96
1260.381,-60.1
1260.396,-60.25
1260.411,-60.23
1260.426,-59.91
1260.441,-59.74
1260.456,-60.1
1260.471,-59.73
1260.486,-59.98
1260.501,-59.96
1260.516,-60.09
1260.531,-59.87
1260.546,-60.18
1260.561,-60.2
1260.576,-59.85
1260.591,-60.29
1260.606,-60.0
1260.621,-60.53
1260.636,-60.37
1260.651,-60.74
1260.666,-61.15
1260.681,-61.28
1260.696,-61.62
1260.711,-61.74
1260.726,-62.12
1260.741,-61.2
1260.756,-61.87
1260.771,-61.16
1260.786,-61.19
1260.801,-61.22
1260.816,-61.2
1260.831,-61.04
1260.846,-60.54
1260.861,-60.85
1260.876,-60.5
1260.891,-60.92
1260.906,-60.86
1260.921,-60.73
1260.936,-60.75
1260.951,-60.97
1260.966,-61.43
1260.981,-61.12
1260.996,-61.59
1261.011,-60.98
1261.026,-61.36
1261.041,-61.65
1261.056,-61.86
1261.071,-61.14
1261.086,-60.79
1261.101,-61.03
1261.116,-60.66
1261.131,-61.83
1261.146,-61.14
1261.161,-60.63
1261.176,-61.1
1261.191,-61.29
1261.206,-62.32
1261.221,-61.14
1261.236,-60.99
1261.251,-60.74
1261.266,-61.47
1261.281,-61.83
1261.297,-60.94
1261.312,-60.39
1261.326,-60.17
1261.341,-60.73
1261.356,-60.81
1261.371,-61.21
1261.386,-60.36
1261.401,-60.47
1261.417,-61.19
1261.432,-61.55
1261.447,-61.49
1261.461,-60.71
1261.476,-60.78
1261.491,-61.6
1261.506,-62.57
1261.521,-62.22
1261.536,-61.51
1261.552,-60.94
1261.567,-61.16
1261.582,-62.4
1261.597,-61.64
1261.611,-61.08
1261.626,-60.29
1261.641,-60.64
1261.656,-61.31
1261.672,-60.66
1261.687,-60.09
1261.702,-59.6
1261.717,-59.95
1261.732,-60.2
1261.746,-60.99
1261.761,-60.14
1261.776,-60.03
1261.792,-60.52
1261.807,-60.83
1261.822,-61.13
1261.837,-60.31
1261.852,-60.31
1261.867,-60.16
1261.882,-60.63
1261.896,-60.71
1261.911,-59.94
1261.927,-59.96
1261.942,-59.85
1261.957,-60.59
1261.972,-60.27
1261.987,-60.44
1262.002,-59.71
1262.017,-59.86
1262.031,-60.81
1262.047,-60.73
1262.062,-60.23
1262.077,-59.68
1262.092,-59.87
1262.107,-59.93
1262.122,-60.81
1262.137,-60.27
1262.152,-59.85
1262.167,-60.07
1262.182,-60.02
1262.197,-60.78
1262.212,-60.17
1262.227,-60.26
1262.242,-60.11
1262.257,-60.73
1262.272,-61.17
1262.287,-61.24
1262.302,-61.24
1262.317,-61.06
1262.332,-61.82
1262.347,-61.57
1262.362,-61.51
1262.377,-60.49
1262.392,-60.55
1262.407,-60.33
1262.422,-60.3
1262.437,-60.67
1262.452,-60.13
1262.467,-60.19
1262.482,-60.46
1262.497,-60.48
1262.512,-60.23
1262.527,-60.08
1262.542,-60.01
1262.557,-60.4
1262.572,-61.08
1262.587,-60.72
1262.602,-60.57
1262.617,-60.58
1262.632,-61.03
1262.647,-61.81
1262.662,-61.86
1262.677,-61.41
1262.692,-61.27
1262.707,-62.25
1262.722,-62.35
1262.737,-62.63
1262.752,-61.41
1262.767,-61.06
1262.782,-61.2
1262.797,-61.28
1262.812,-61.62
1262.827,-60.8
1262.842,-61.09
1262.857,-60.93
1262.872,-61.77
1262.887,-61.9
1262.902,-61.11
1262.917,-61.23
1262.932,-61.35
1262.947,-62.94
1262.962,-62.35
1262.977,-62.62
1262.992,-61.41
1263.007,-61.54
1263.022,-62.64
1263.037,-62.22
1263.052,-61.81
1263.067,-61.05
1263.082,-61.52
1263.097,-62.6
1263.112,-64.16
1263.127,-63.0
1263.142,-62.15
1263.157,-62.51
1263.172,-62.79
1263.187,-64.69
1263.202,-63.25
1263.217,-62.62
1263.232,-61.81
1263.247,-62.89
1263.262,-63.83
1263.277,-62.49
1263.292,-61.48
1263.307,-61.0
1263.322,-61.86
1263.337,-61.97
1263.352,-61.57
1263.367,-60.9
1263.382,-60.91
1263.397,-61.66
1263.412,-62.16
1263.427,-62.31
1263.442,-61.35
1263.457,-61.35
1263.472,-62.67
1263.487,-63.49
1263.502,-63.05
1263.517,-62.34
1263.532,-62.09
1263.547,-62.53
1263.562,-63.5
1263.577,-62.52
1263.592,-61.51
1263.607,-62.02
1263.622,-61.99
1263.637,-62.79
1263.652,-61.89
1263.667,-60.87
1263.682,-60.8
1263.697,-61.72
1263.712,-61.83
1263.727,-61.34
1263.742,-60.67
1263.757,-60.54
1263.772,-61.44
1263.787,-62.06
1263.802,-62.2
1263.817,-61.24
1263.832,-61.49
1263.847,-62.06
1263.862,-62.39
1263.877,-62.24
1263.892,-61.45
1263.907,-62.06
1263.922,-63.18
1263.937,-64.57
1263.952,-62.86
1263.967,-62.13
1263.982,-61.78
1263.997,-62.17
1264.012,-63.95
1264.027,-62.84
1264.042,-61.9
1264.057,-61.92
1264.072,-62.69
1264.087,-63.64
1264.102,-62.5
1264.117,-61.51
1264.132,-61.32
1264.147,-62.2
1264.162,-62.59
1264.177,-62.68
1264.192,-61.45
1264.207,-61.1
1264.222,-62.35
1264.237,-62.72
1264.252,-62.61
1264.267,-61.24
1264.282,-61.52
1264.297,-62.21
1264.312,-62.72
1264.327,-62.23
1264.342,-61.48
1264.357,-61.67
1264.372,-62.7
1264.387,-64.34
1264.402,-63.06
1264.417,-62.38
1264.432,-62.23
1264.447,-62.52
1264.462,-64.43
1264.477,-62.93
1264.492,-61.93
1264.507,-61.44
1264.522,-61.9
1264.537,-62.67
1264.552,-62.84
1264.567,-61.45
1264.582,-61.09
1264.597,-61.92
1264.612,-62.13
1264.627,-61.78
1264.642,-60.96
1264.657,-60.76
1264.672,-61.24
1264.687,-62.1
1264.702,-62.33
1264.717,-61.24
1264.732,-61.2
1264.747,-61.96
1264.762,-62.57
1264.777,-62.37
1264.792,-61.75
1264.807,-61.01
1264.822,-61.86
1264.837,-63.01
1264.852,-62.4
1264.867,-61.99
1264.882,-61.67
1264.897,-61.86
1264.912,-62.76
1264.927,-62.02
1264.942,-60.87
1264.957,-60.63
1264.972,-60.99
1264.987,-61.58
1265.002,-61.58
1265.017,-60.7
1265.032,-60.49
1265.047,-61.25
1265.062,-61.61
1265.077,-61.09
1265.092,-60.48
1265.107,-60.22
1265.122,-60.94
1265.137,-61.62
1265.152,-61.72
1265.167,-60.91
1265.182,-60.78
1265.197,-61.44
1265.212,-61.68
1265.227,-61.43
1265.242,-60.92
1265.257,-60.76
1265.272,-61.56
1265.287,-61.45
1265.302,-61.58
1265.317,-61.46
1265.332,-61.21
1265.347,-61.42
1265.362,-61.81
1265.377,-61.59
1265.392,-60.65
1265.407,-60.66
1265.422,-60.78
1265.437,-60.98
1265.452,-61.55
1265.467,-61.22
1265.482,-60.73
1265.497,-60.63
1265.512,-61.26
1265.527,-61.67
1265.542,-61.39
1265.557,-60.82
1265.572,-61.06
1265.587,-62.34
1265.602,-62.32
1265.617,-61.62
1265.632,-61.28
1265.647,-61.47
1265.662,-61.84
1265.677,-62.14
1265.692,-61.78
1265.707,-60.83
1265.722,-60.52
1265.737,-61.01
1265.752,-61.17
1265.767,-60.76
1265.782,-60.3
1265.797,-60.24
1265.812,-60.7
1265.827,-60.9
1265.842,-60.14
1265.857,-59.66
1265.872,-59.48
1265.887,-59.83
1265.902,-60.36
1265.917,-59.99
1265.932,-59.5
1265.947,-59.64
1265.962,-60.42
1265.977,-60.85
1265.992,-60.5
1266.007,-60.21
1266.022,-60.22
1266.037,-61.19
1266.052,-61.44
1266.067,-60.78
1266.082,-60.74
1266.097,-61.15
1266.112,-61.75
1266.127,-61.96
1266.142,-61.15
1266.157,-60.38
1266.172,-60.4
1266.187,-60.81
1266.202,-60.9
1266.217,-60.79
1266.232,-60.12
1266.247,-60.18
1266.262,-60.46
1266.277,-60.28
1266.292,-60.35
1266.307,-59.75
1266.322,-59.63
1266.337,-60.1
1266.352,-60.38
1266.367,-60.61
1266.382,-59.99
1266.397,-59.88
1266.412,-60.28
1266.427,-60.94
1266.442,-61.01
1266.457,-60.28
1266.472,-59.89
1266.487,-60.52
1266.502,-61.62
1266.517,-61.3
1266.532,-60.83
1266.547,-60.4
1266.562,-60.75
1266.577,-61.44
1266.592,-60.68
1266.607,-60.28
1266.622,-60.33
1266.637,-60.78
1266.652,-61.18
1266.667,-60.98
1266.682,-60.62
1266.697,-60.37
1266.712,-60.98
1266.727,-61.57
1266.742,-61.3
1266.757,-60.93
1266.772,-60.8
1266.787,-61.74
1266.802,-62.25
1266.817,-61.92
1266.832,-61.06
1266.847,-61.52
1266.862,-62.37
1266.877,-62.81
1266.892,-62.14
1266.907,-61.42
1266.922,-61.26
1266.937,-61.92
1266.952,-61.99
1266.967,-61.46
1266.982,-60.81
1266.997,-60.72
1267.012,-61.17
1267.027,-60.84
1267.042,-60.19
1267.057,-59.68
1267.072,-60.01
1267.087,-60.21
1267.102,-60.35
1267.117,-60.18
1267.132,-59.78
1267.147,-60.31
1267.162,-60.37
1267.177,-60.48
1267.192,-60.19
1267.207,-59.77
1267.222,-60.21
1267.237,-60.17
1267.252,-60.31
1267.267,-60.02
1267.282,-60.09
1267.297,-60.5
1267.312,-61.05
1267.327,-60.99
1267.342,-60.57
1267.357,-60.74
1267.372,-60.28
1267.387,-60.75
1267.402,-60.82
1267.417,-60.48
1267.432,-60.79
1267.447,-60.54
1267.462,-60.9
1267.477,-60.59
1267.492,-60.47
1267.507,-60.21
1267.522,-60.52
1267.537,-60.45
1267.552,-59.97
1267.567,-60.34
1267.582,-59.87
1267.597,-60.35
1267.612,-60.47
1267.627,-60.14
1267.642,-60.53
1267.657,-60.38
1267.672,-60.95
1267.687,-60.89
1267.702,-60.99
1267.717,-60.45
1267.732,-60.66
1267.747,-61.43
1267.762,-60.85
1267.777,-61.05
1267.792,-60.32
1267.807,-60.51
1267.822,-60.56
1267.837,-60.59
1267.852,-60.62
1267.867,-59.85
1267.882,-60.51
1267.897,-60.48
1267.912,-60.69
1267.927,-60.42
1267.942,-60.03
1267.957,-60.87
1267.972,-60.59
1267.987,-60.53
1268.002,-60.06
1268.017,-60.02
1268.032,-60.79
1268.047,-60.85
1268.062,-61.22
1268.077,-60.48
1268.092,-60.86
1268.107,-60.75
1268.122,-60.54
1268.137,-60.57
1268.152,-59.9
1268.167,-60.14
1268.182,-60.17
1268.197,-60.82
1268.212,-60.74
1268.227,-60.33
1268.242,-60.85
1268.257,-60.76
1268.272,-61.3
1268.287,-60.79
1268.302,-60.73
1268.317,-60.69
1268.332,-61.36
1268.347,-61.8
1268.362,-60.79
1268.377,-61.08
1268.392,-61.36
1268.407,-62.75
1268.422,-62.94
1268.437,-61.59
1268.452,-61.14
1268.467,-61.81
1268.482,-63.13
1268.497,-62.9
1268.512,-61.94
1268.527,-60.97
1268.542,-60.9
1268.557,-62.31
1268.572,-61.84
1268.587,-61.57
1268.602,-61.01
1268.617,-61.19
1268.632,-62.27
1268.647,-61.31
1268.662,-60.83
1268.677,-60.17
1268.692,-60.4
1268.707,-60.84
1268.722,-60.98
1268.737,-60.42
1268.752,-59.78
1268.767,-60.42
1268.782,-60.71
1268.797,-60.51
1268.812,-60.01
1268.827,-59.9
1268.842,-60.51
1268.857,-60.53
1268.872,-60.69
1268.887,-59.9
1268.902,-60.02
1268.917,-60.73
1268.932,-60.73
1268.947,-61.16
1268.962,-60.11
1268.977,-60.3
1268.992,-61.05
1269.007,-61.26
1269.022,-60.99
1269.037,-60.38
1269.052,-60.7
1269.067,-60.93
1269.082,-60.81
1269.097,-60.53
1269.112,-59.93
1269.127,-60.71
1269.142,-60.98
1269.157,-61.99
1269.172,-61.04
1269.188,-60.64
1269.202,-60.64
1269.217,-61.12
1269.232,-61.84
1269.247,-60.65
1269.262,-60.72
1269.277,-61.13
1269.292,-61.93
1269.307,-62.16
1269.323,-61.36
1269.338,-60.64
1269.352,-60.89
1269.367,-61.81
1269.382,-62.07
1269.397,-61.0
1269.412,-60.09
1269.427,-59.91
1269.443,-60.45
1269.458,-60.92
1269.473,-60.09
1269.487,-59.56
1269.502,-59.41
1269.517,-60.08
1269.532,-60.12
1269.547,-60.19
1269.563,-59.72
1269.578,-59.68
1269.593,-60.57
1269.608,-60.53
1269.623,-60.21
1269.637,-59.44
1269.652,-59.44
1269.667,-60.0
1269.682,-60.26
1269.698,-59.95
1269.713,-59.4
1269.728,-59.53
1269.743,-60.25
1269.758,-60.22
1269.772,-59.82
1269.787,-59.24
1269.802,-60.01
1269.818,-60.64
1269.833,-60.27
1269.848,-60.05
1269.863,-59.65
1269.878,-59.95
1269.893,-60.77
1269.908,-61.26
1269.922,-60.23
1269.938,-60.13
1269.953,-60.34
1269.968,-61.2
1269.983,-61.43
1269.998,-60.75
1270.013,-60.6
1270.028,-61.57
1270.043,-62.07
1270.058,-62.11
1270.073,-61.21
1270.088,-61.41
1270.103,-62.13
1270.118,-63.02
1270.133,-62.34
1270.148,-61.67
1270.163,-61.08
1270.178,-61.44
1270.193,-62.93
1270.208,-62.4
1270.223,-61.88
1270.238,-61.43
1270.253,-61.97
1270.268,-63.37
1270.283,-62.08
1270.298,-61.5
1270.313,-61.77
1270.328,-62.32
1270.343,-63.34
1270.358,-62.12
1270.373,-61.41
1270.388,-60.96
1270.403,-61.74
1270.418,-61.86
1270.433,-61.44
1270.448,-61.04
1270.463,-60.67
1270.478,-61.63
1270.493,-61.37
1270.508,-61.24
1270.523,-60.48
1270.538,-60.48
1270.553,-61.21
1270.568,-61.26
1270.583,-60.99
1270.598,-60.28
1270.613,-60.31
1270.628,-61.17
1270.643,-61.28
1270.658,-61.67
1270.673,-60.81
1270.688,-61.32
1270.703,-62.13
1270.718,-61.84
1270.733,-62.0
1270.748,-60.84
1270.763,-61.68
1270.778,-61.84
1270.793,-62.91
1270.808,-61.85
1270.823,-60.97
1270.838,-62.28
1270.853,-62.22
1270.868,-63.14
1270.883,-62.42
1270.898,-61.88
1270.913,-62.0
1270.928,-61.83
1270.943,-62.52
1270.958,-61.91
1270.973,-61.88
1270.988,-62.01
1271.003,-62.35
1271.018,-62.47
1271.033,-61.38
1271.048,-61.38
1271.063,-61.47
1271.078,-62.09
1271.093,-61.7
1271.108,-61.27
1271.123,-61.41
1271.138,-61.33
1271.153,-62.24
1271.168,-61.55
1271.183,-61.66
1271.198,-61.53
1271.213,-62.2
1271.228,-62.52
1271.243,-61.42
1271.258,-61.55
1271.273,-60.82
1271.288,-61.7
1271.303,-62.01
1271.318,-61.26
1271.333,-60.96
1271.348,-60.36
1271.363,-61.12
1271.378,-61.35
1271.393,-61.05
1271.408,-60.44
1271.423,-60.33
1271.438,-61.43
1271.453,-61.26
1271.468,-61.31
1271.483,-60.39
1271.498,-60.97
1271.513,-61.5
1271.528,-61.39
1271.543,-61.48
1271.558,-60.77
1271.573,-60.93
1271.588,-61.47
1271.603,-61.28
1271.618,-61.16
1271.633,-60.45
1271.648,-60.9
1271.663,-60.83
1271.678,-60.7
1271.693,-60.56
1271.708,-59.91
1271.723,-60.74
1271.738,-60.72
1271.753,-60.87
1271.768,-60.02
1271.783,-60.15
1271.798,-60.09
1271.813,-60.1
1271.828,-60.09
1271.843,-59.4
1271.858,-59.56
1271.873,-59.62
1271.888,-59.63
1271.903,-59.74
1271.918,-59.09
1271.933,-59.52
1271.948,-59.51
1271.963,-59.41
1271.978,-59.47
1271.993,-59.1
1272.008,-59.24
1272.023,-59.11
1272.038,-59.24
1272.053,-59.14
1272.068,-58.89
1272.083,-58.88
1272.098,-59.02
1272.113,-59.04
1272.128,-59.09
1272.143,-58.93
1272.158,-59.0
1272.173,-58.91
1272.188,-59.01
1272.203,-59.21
1272.218,-58.9
1272.233,-58.99
1272.248,-59.08
1272.263,-59.07
1272.278,-59.4
1272.293,-59.12
1272.308,-59.19
1272.323,-58.97
1272.338,-58.98
1272.353,-59.6
1272.368,-59.41
1272.383,-59.25
1272.398,-59.24
1272.413,-59.56
1272.428,-59.65
1272.443,-59.65
1272.458,-59.54
1272.473,-59.55
1272.488,-60.1
1272.503,-59.91
1272.518,-59.9
1272.533,-59.92
1272.548,-59.78
1272.563,-60.52
1272.578,-60.44
1272.593,-60.59
1272.608,-60.6
1272.623,-60.67
1272.638,-61.39
1272.653,-60.78
1272.668,-60.9
1272.683,-61.19
1272.698,-60.91
1272.713,-61.64
1272.728,-61.33
1272.743,-61.47
1272.758,-61.19
1272.773,-61.78
1272.788,-62.44
1272.803,-62.48
1272.818,-62.56
1272.833,-62.1
1272.848,-63.04
1272.863,-64.09
1272.878,-63.67
1272.893,-64.22
1272.908,-64.02
1272.923,-65.3
1272.938,-65.54
1272.953,-66.2
1272.968,-66.57
1272.983,-65.38
1272.998,-66.25
1273.013,-65.07
1273.028,-66.98
1273.043,-66.16
1273.058,-65.86
1273.073,-69.77
1273.088,-68.26
1273.103,-73.85
1273.118,-72.78
1273.133,-68.75
1273.148,-74.78
1273.163,-71.88
1273.178,-75.18
1273.193,-83.74
1273.208,-72.17
1273.223,-210.0
1273.238,-77.75
1273.253,-210.0
1273.268,-210.0
1273.283,-210.0
1273.298,-210.0
1273.313,-76.35
1273.328,-210.0
1273.343,-79.72
1273.358,-76.14
1273.373,-72.46
1273.388,-81.43
1273.403,-77.39
1273.418,-73.05
1273.433,-210.0
1273.448,-210.0
1273.463,-210.0
1273.478,-76.22
1273.493,-75.24
1273.508,-210.0
1273.523,-78.21
1273.538,-77.45
1273.553,-78.03
1273.568,-72.46
1273.583,-210.0
1273.598,-67.66
1273.613,-68.88
1273.628,-67.81
1273.643,-66.2
1273.658,-70.27
1273.673,-66.43
1273.688,-66.44
1273.703,-66.95
1273.718,-67.94
1273.733,-66.43
1273.748,-66.23
1273.763,-66.06
1273.778,-66.53
1273.793,-66.28
1273.808,-65.45
1273.823,-65.64
1273.838,-66.89
1273.853,-66.51
1273.868,-66.28
1273.883,-65.13
1273.898,-65.51
1273.913,-64.31
1273.928,-64.55
1273.943,-64.84
1273.958,-62.8
1273.973,-62.93
1273.988,-62.58
1274.003,-62.98
1274.018,-63.56
1274.033,-62.02
1274.048,-62.4
1274.063,-62.34
1274.078,-61.9
1274.093,-62.16
1274.108,-61.12
1274.123,-61.48
1274.138,-61.4
1274.153,-61.21
1274.168,-61.37
1274.183,-61.1
1274.198,-61.19
1274.213,-60.94
1274.228,-60.64
1274.243,-60.52
1274.258,-60.2
1274.273,-60.29
1274.288,-60.01
1274.303,-60.01
1274.318,-59.85
1274.333,-59.62
1274.348,-59.89
1274.363,-59.42
1274.378,-59.71
1274.393,-59.25
1274.408,-59.56
1274.423,-59.5
1274.438,-59.09
1274.453,-59.5
1274.468,-59.17
1274.483,-59.67
1274.498,-59.55
1274.513,-59.1
1274.528,-59.58
1274.543,-59.38
1274.558,-59.66
1274.573,-59.44
1274.588,-59.14
1274.603,-59.59
1274.618,-59.12
1274.633,-59.32
1274.648,-59.38
1274.663,-59.22
1274.678,-59.42
1274.693,-59.13
1274.708,-59.27
1274.723,-58.97
1274.738,-59.36
1274.753,-59.06
1274.768,-59.13
1274.783,-59.13
1274.798,-58.98
1274.813,-59.26
1274.828,-58.94
1274.843,-58.71
1274.858,-58.75
1274.873,-58.62
1274.888,-58.87
1274.903,-58.59
1274.918,-58.59
1274.933,-58.42
1274.948,-58.04
1274.963,-58.38
1274.978,-58.42
1274.993,-58.45
1275.008,-58.4
1275.023,-57.9
1275.038,-58.23
1275.053,-58.13
1275.068,-58.49
1275.083,-58.32
1275.098,-58.1
1275.113,-58.52
1275.128,-58.3
1275.143,-58.58
1275.158,-58.4
1275.173,-58.09
1275.188,-58.36
1275.203,-58.19
1275.218,-58.27
1275.233,-58.17
1275.248,-58.05
1275.263,-58.18
1275.278,-58.12
1275.293,-58.19
1275.308,-58.05
1275.323,-58.09
1275.338,-58.42
1275.353,-58.17
1275.368,-58.26
1275.383,-57.98
1275.398,-58.3
1275.413,-58.07
1275.428,-58.09
1275.443,-58.08
1275.458,-57.84
1275.473,-58.21
1275.488,-57.95
1275.503,-58.01
1275.518,-58.01
1275.533,-57.66
1275.548,-57.9
1275.563,-57.64
1275.578,-57.76
1275.593,-57.71
1275.608,-57.54
1275.623,-57.92
1275.638,-57.86
1275.653,-57.92
1275.668,-57.58
1275.683,-57.59
1275.698,-57.9
1275.713,-57.81
1275.728,-57.88
1275.743,-57.6
1275.758,-57.81
1275.773,-57.7
1275.788,-57.7
1275.803,-57.81
1275.818,-57.58
1275.833,-57.8
1275.848,-57.75
1275.863,-57.75
1275.878,-57.59
1275.893,-57.5
1275.908,-57.61
1275.923,-57.58
1275.938,-57.7
1275.953,-57.73
1275.968,-57.6
1275.983,-57.81
1275.998,-57.79
1276.013,-57.66
1276.028,-57.74
1276.043,-57.77
1276.058,-58.02
1276.073,-57.76
1276.088,-57.83
1276.103,-57.87
1276.118,-57.75
1276.133,-57.91
1276.148,-57.5
1276.163,-57.78
1276.178,-57.72
1276.193,-57.61
1276.208,-57.63
1276.223,-57.48
1276.238,-57.76
1276.253,-57.59
1276.268,-57.73
1276.283,-57.78
1276.298,-57.79
1276.313,-57.85
1276.328,-57.68
1276.343,-57.92
1276.358,-57.85
1276.373,-57.93
1276.388,-58.05
1276.403,-57.73
1276.418,-58.1
1276.433,-58.08
1276.448,-58.19
1276.463,-58.19
1276.478,-58.08
1276.493,-58.3
1276.508,-58.13
1276.523,-58.09
1276.538,-58.17
1276.553,-58.07
1276.568,-58.51
1276.583,-58.45
1276.598,-58.26
1276.613,-58.45
1276.628,-58.23
1276.643,-58.76
1276.658,-58.67
1276.673,-58.82
1276.688,-58.95
1276.703,-58.95
1276.718,-59.37
1276.733,-59.12
1276.748,-59.3
1276.763,-59.36
1276.778,-59.52
1276.793,-59.93
1276.808,-59.66
1276.823,-59.64
1276.838,-59.49
1276.853,-59.87
1276.868,-59.92
1276.883,-59.99
1276.898,-60.18
1276.913,-60.11
1276.928,-59.94
1276.943,-59.85
1276.958,-59.91
1276.973,-60.52
1276.988,-60.12
1277.003,-59.89
1277.018,-60.12
1277.033,-60.35
1277.048,-60.82
1277.063,-60.56
1277.078,-60.14
1277.093,-60.22
1277.108,-60.39
1277.123,-60.67
1277.138,-59.94
1277.153,-60.03
1277.168,-60.09
1277.183,-60.22
1277.198,-60.38
1277.214,-59.94
1277.228,-60.26
1277.243,-60.24
1277.258,-60.42
1277.273,-60.37
1277.288,-59.92
1277.303,-59.96
1277.318,-60.57
1277.333,-60.93
1277.349,-60.44
1277.364,-60.21
1277.378,-60.49
1277.393,-61.08
1277.408,-61.69
1277.423,-60.93
1277.438,-60.51
1277.453,-60.74
1277.469,-61.4
1277.484,-60.93
1277.499,-60.35
1277.514,-60.23
1277.528,-60.56
1277.543,-61.39
1277.558,-60.74
1277.573,-60.16
1277.589,-60.02
1277.604,-61.06
1277.619,-61.4
1277.634,-60.96
1277.649,-60.14
1277.663,-60.07
1277.678,-60.91
1277.693,-60.83
1277.708,-60.19
1277.724,-59.68
1277.739,-59.81
1277.754,-60.38
1277.769,-59.85
1277.784,-59.33
1277.799,-58.97
1277.813,-59.07
1277.828,-59.67
1277.844,-59.22
1277.859,-58.74
1277.874,-58.9
1277.889,-59.29
1277.904,-59.79
1277.919,-59.09
1277.934,-58.94
1277.948,-59.2
1277.964,-59.42
1277.979,-59.7
1277.994,-59.2
1278.009,-59.2
1278.024,-59.58
1278.039,-60.16
1278.054,-60.06
1278.069,-59.46
1278.084,-59.69
1278.099,-60.1
1278.114,-60.4
1278.129,-60.11
1278.144,-59.87
1278.159,-60.27
1278.174,-60.72
1278.189,-60.75
1278.204,-60.41
1278.219,-60.27
1278.234,-60.65
1278.249,-61.18
1278.264,-60.93
1278.279,-60.23
1278.294,-60.22
1278.309,-61.0
1278.324,-60.65
1278.339,-60.36
1278.354,-60.02
1278.369,-60.06
1278.384,-60.72
1278.399,-60.29
1278.414,-59.73
1278.429,-59.57
1278.444,-59.75
1278.459,-60.36
1278.474,-60.06
1278.489,-59.78
1278.504,-59.91
1278.519,-59.94
1278.534,-60.43
1278.549,-59.84
1278.564,-59.75
1278.579,-59.98
1278.594,-60.81
1278.609,-60.92
1278.624,-60.25
1278.639,-60.12
1278.654,-60.64
1278.669,-61.56
1278.684,-61.33
1278.699,-60.68
1278.714,-60.61
1278.729,-61.34
1278.744,-62.1
1278.759,-61.82
1278.774,-61.29
1278.789,-61.6
1278.804,-62.56
1278.819,-63.17
1278.834,-62.67
1278.849,-62.18
1278.864,-62.92
1278.879,-63.59
1278.894,-63.32
1278.909,-61.89
1278.924,-61.42
1278.939,-61.87
1278.954,-62.59
1278.969,-63.0
1278.984,-61.67
1278.999,-61.31
1279.014,-61.9
1279.029,-62.29
1279.044,-61.53
1279.059,-60.74
1279.074,-60.44
1279.089,-60.86
1279.104,-61.17
1279.119,-60.96
1279.134,-60.16
1279.149,-60.56
1279.164,-60.75
1279.179,-60.77
1279.194,-60.44
1279.209,-59.98
1279.224,-60.78
1279.239,-61.02
1279.254,-60.57
1279.269,-60.46
1279.284,-60.53
1279.299,-61.66
1279.314,-61.55
1279.329,-61.4
1279.344,-61.2
1279.359,-61.08
1279.374,-62.17
1279.389,-62.08
1279.404,-61.71
1279.419,-61.68
1279.434,-61.64
1279.449,-62.94
1279.464,-61.62
1279.479,-61.39
1279.494,-61.69
1279.509,-61.49
1279.524,-62.55
1279.539,-61.7
1279.554,-61.61
1279.569,-61.53
1279.584,-62.37
1279.599,-62.21
1279.614,-60.87
1279.629,-60.61
1279.644,-60.97
1279.659,-61.38
1279.674,-60.73
1279.689,-59.93
1279.704,-59.74
1279.719,-59.95
1279.734,-59.99
1279.749,-59.74
1279.764,-59.22
1279.779,-59.58
1279.794,-59.89
1279.809,-59.88
1279.824,-59.57
1279.839,-59.1
1279.854,-59.8
1279.869,-60.01
1279.884,-59.81
1279.899,-59.5
1279.914,-59.48
1279.929,-60.02
1279.944,-60.59
1279.959,-60.52
1279.974,-59.92
1279.989,-59.89
1280.004,-60.76
1280.019,-60.68
1280.034,-60.33
1280.049,-59.96
1280.064,-60.14
1280.079,-61.15
1280.094,-60.91
1280.109,-60.5
1280.124,-59.98
1280.139,-60.58
1280.154,-60.94
1280.169,-60.7
1280.184,-60.03
1280.199,-59.99
1280.214,-61.03
1280.229,-60.91
1280.244,-60.52
1280.259,-60.02
1280.274,-59.98
1280.289,-60.74
1280.304,-60.28
1280.319,-59.61
1280.334,-59.46
1280.349,-59.51
1280.364,-60.23
1280.379,-59.66
1280.394,-59.01
1280.409,-59.31
1280.424,-59.64
1280.439,-60.04
1280.454,-59.33
1280.469,-59.26
1280.484,-59.48
1280.499,-59.76
1280.514,-60.23
1280.529,-59.37
1280.544,-59.43
1280.559,-59.76
1280.574,-60.54
1280.589,-60.33
1280.604,-59.5
1280.619,-60.05
1280.634,-60.58
1280.649,-60.51
1280.664,-60.18
1280.679,-59.71
1280.694,-60.01
1280.709,-61.1
1280.724,-61.06
1280.739,-60.74
1280.754,-60.19
1280.769,-60.56
1280.784,-60.9
1280.799,-60.72
1280.814,-60.26
1280.829,-60.14
1280.844,-60.85
1280.859,-60.84
1280.874,-60.36
1280.889,-59.78
1280.904,-59.73
1280.919,-60.36
1280.934,-60.62
1280.949,-60.03
1280.964,-59.57
1280.979,-59.56
1280.994,-60.27
1281.009,-60.08
1281.024,-59.77
1281.039,-59.62
1281.054,-59.74
1281.069,-60.25
1281.084,-59.65
1281.099,-59.51
1281.114,-59.52
1281.129,-59.71
1281.144,-60.05
1281.159,-59.54
1281.174,-59.46
1281.189,-60.0
1281.204,-60.7
1281.219,-60.59
1281.234,-59.82
1281.249,-59.68
1281.264,-60.23
1281.279,-60.56
1281.294,-60.52
1281.309,-59.9
1281.324,-60.15
1281.339,-60.5
1281.354,-60.75
1281.369,-60.2
1281.384,-60.03
1281.399,-60.5
1281.414,-60.69
1281.429,-60.28
1281.444,-59.87
1281.459,-59.82
1281.474,-60.23
1281.489,-60.56
1281.504,-60.2
1281.519,-59.66
1281.534,-59.74
1281.549,-60.46
1281.564,-60.39
1281.579,-59.69
1281.594,-59.37
1281.609,-60.19
1281.624,-60.56
1281.639,-60.12
1281.654,-59.88
1281.669,-59.59
1281.684,-60.38
1281.699,-60.81
1281.714,-60.39
1281.729,-60.22
1281.744,-59.99
1281.759,-60.9
1281.774,-60.91
1281.789,-60.25
1281.804,-60.03
1281.819,-60.18
1281.834,-60.92
1281.849,-60.59
1281.864,-60.08
1281.879,-60.03
1281.894,-60.33
1281.909,-61.04
1281.924,-60.48
1281.939,-59.8
1281.954,-60.57
1281.969,-60.8
1281.984,-61.32
1281.999,-60.47
1282.014,-60.05
1282.029,-61.02
1282.044,-61.21
1282.059,-61.46
1282.074,-60.67
1282.089,-60.95
1282.104,-62.19
1282.119,-61.34
1282.134,-61.86
1282.149,-60.94
1282.164,-61.46
1282.179,-62.58
1282.194,-61.45
1282.209,-61.02
1282.224,-60.32
1282.239,-61.13
1282.254,-61.67
1282.269,-60.71
1282.284,-60.86
1282.299,-60.25
1282.314,-61.09
1282.329,-61.28
1282.344,-60.35
1282.359,-60.69
1282.374,-60.88
1282.389,-61.72
1282.404,-62.09
1282.419,-60.78
1282.434,-61.27
1282.449,-62.33
1282.464,-62.13
1282.479,-62.34
1282.494,-61.3
1282.509,-61.64
1282.524,-62.38
1282.539,-62.33
1282.554,-61.46
1282.569,-60.92
1282.584,-61.78
1282.599,-62.24
1282.614,-61.1
1282.629,-60.69
1282.644,-60.36
1282.659,-61.33
1282.674,-61.45
1282.689,-60.69
1282.704,-60.62
1282.719,-60.66
1282.734,-61.22
1282.749,-61.26
1282.764,-60.51
1282.779,-60.91
1282.794,-61.25
1282.809,-61.33
1282.824,-61.1
1282.839,-60.23
1282.854,-60.76
1282.869,-60.68
1282.884,-60.61
1282.899,-60.27
1282.914,-59.89
1282.929,-60.6
1282.944,-61.01
1282.959,-60.25
1282.974,-60.1
1282.989,-59.78
1283.004,-60.64
1283.019,-61.09
1283.034,-60.38
1283.049,-60.07
1283.064,-60.62
1283.079,-61.42
1283.094,-60.93
1283.109,-60.02
1283.124,-60.53
1283.139,-60.66
1283.154,-60.6
1283.169,-60.12
1283.184,-59.5
1283.199,-59.92
1283.214,-60.17
1283.229,-59.99
1283.244,-59.69
1283.259,-59.38
1283.274,-60.14
1283.289,-59.98
1283.304,-59.86
1283.319,-59.39
1283.334,-59.28
1283.349,-60.03
1283.364,-59.85
1283.379,-59.47
1283.394,-59.27
1283.409,-59.33
1283.424,-60.09
1283.439,-59.75
1283.454,-59.09
1283.469,-59.56
1283.484,-59.53
1283.499,-59.48
1283.514,-59.33
1283.529,-58.82
1283.544,-59.24
1283.559,-59.36
1283.574,-59.28
1283.589,-58.85
1283.604,-58.61
1283.619,-59.38
1283.634,-59.26
1283.649,-59.08
1283.664,-58.7
1283.679,-58.66
1283.694,-59.3
1283.709,-59.32
1283.724,-58.74
1283.739,-58.39
1283.754,-58.7
1283.769,-59.26
1283.784,-59.1
1283.799,-58.64
1283.814,-58.83
1283.829,-59.26
1283.844,-59.45
1283.859,-59.28
1283.874,-58.89
1283.889,-59.2
1283.904,-59.62
1283.919,-59.59
1283.934,-59.31
1283.949,-58.89
1283.964,-59.35
1283.979,-59.53
1283.994,-59.48
1284.009,-58.92
1284.024,-58.61
1284.039,-58.99
1284.054,-59.08
1284.069,-58.49
1284.084,-58.1
1284.099,-58.63
1284.114,-59.04
1284.129,-58.94
1284.144,-58.5
1284.159,-58.84
1284.174,-59.28
1284.189,-59.22
1284.204,-59.1
1284.219,-58.66
1284.234,-59.4
1284.249,-59.57
1284.264,-59.31
1284.279,-58.91
1284.294,-58.86
1284.309,-59.45
1284.324,-59.73
1284.339,-59.57
1284.354,-59.32
1284.369,-59.19
1284.384,-59.99
1284.399,-59.93
1284.414,-59.36
1284.429,-59.01
1284.444,-59.59
1284.459,-60.12
1284.474,-59.72
1284.489,-59.28
1284.504,-59.7
1284.519,-60.35
1284.534,-61.14
1284.549,-60.38
1284.564,-60.14
1284.579,-60.55
1284.594,-61.32
1284.609,-61.14
1284.624,-60.49
1284.639,-60.1
1284.654,-60.76
1284.669,-60.96
1284.684,-60.88
1284.699,-60.42
1284.714,-60.18
1284.729,-61.14
1284.744,-61.92
1284.759,-61.01
1284.774,-60.52
1284.789,-61.09
1284.804,-61.67
1284.819,-61.6
1284.834,-60.56
1284.849,-60.75
1284.864,-61.13
1284.879,-62.12
1284.894,-61.84
1284.909,-61.08
1284.924,-61.45
1284.939,-61.98
1284.954,-62.16
1284.969,-62.02
1284.984,-60.9
1284.999,-61.41
1285.014,-62.5
1285.029,-62.65
1285.044,-61.99
1285.059,-61.39
1285.074,-62.57
1285.089,-63.74
1285.104,-62.2
1285.119,-61.42
1285.134,-61.92
1285.149,-62.87
1285.164,-62.89
1285.179,-61.63
1285.194,-62.15
1285.209,-63.11
1285.224,-64.93
1285.24,-64.01
1285.255,-62.35
1285.269,-63.38
1285.284,-64.77
1285.299,-64.54
1285.314,-63.33
1285.329,-62.37
1285.344,-63.24
1285.359,-64.02
1285.375,-63.77
1285.39,-62.68
1285.404,-61.88
1285.419,-63.33
1285.434,-63.78
1285.449,-62.11
1285.464,-61.31
1285.479,-60.94
1285.495,-62.14
1285.51,-61.81
1285.525,-61.15
1285.54,-60.46
1285.554,-61.17
1285.569,-62.12
1285.584,-61.72
1285.599,-60.86
1285.615,-61.55
1285.63,-62.21
1285.645,-62.11
1285.66,-61.48
1285.675,-61.02
1285.689,-61.81
1285.704,-61.95
1285.719,-61.79
1285.734,-61.07
1285.75,-60.26
1285.765,-61.26
1285.78,-61.26
1285.795,-60.32
1285.81,-59.92
1285.825,-59.86
1285.839,-60.9
1285.854,-61.0
1285.87,-60.0
1285.885,-59.71
1285.9,-60.06
1285.915,-60.77
1285.93,-60.98
1285.945,-60.05
1285.96,-60.23
1285.974,-60.85
1285.99,-60.98
1286.005,-61.05
1286.02,-60.23
1286.035,-60.72
1286.05,-61.27
1286.065,-61.61
1286.08,-60.92
1286.095,-60.11
1286.11,-60.48
1286.125,-61.34
1286.14,-60.39
1286.155,-60.05
1286.17,-59.61
1286.185,-60.49
1286.2,-60.65
1286.215,-59.84
1286.23,-59.46
1286.245,-59.6
1286.26,-60.46
1286.275,-60.53
1286.29,-59.73
1286.305,-59.94
1286.32,-60.39
1286.335,-60.63
1286.35,-60.56
1286.365,-59.74
1286.38,-60.21
1286.395,-60.39
1286.41,-60.42
1286.425,-59.8
1286.44,-59.35
1286.455,-60.02
1286.47,-60.27
1286.485,-60.27
1286.5,-59.83
1286.515,-59.65
1286.53,-60.25
1286.545,-60.27
1286.56,-59.81
1286.575,-59.78
1286.59,-60.1
1286.605,-60.24
1286.62,-60.14
1286.635,-59.39
1286.65,-59.92
1286.665,-60.43
1286.68,-60.33
1286.695,-60.07
1286.71,-59.65
1286.725,-60.35
1286.74,-60.59
1286.755,-60.55
1286.77,-60.14
1286.785,-60.65
1286.8,-61.34
1286.815,-61.13
1286.83,-60.94
1286.845,-60.55
1286.86,-60.8
1286.875,-60.98
1286.89,-61.22
1286.905,-60.53
1286.92,-60.38
1286.935,-60.58
1286.95,-60.55
1286.965,-60.73
1286.98,-60.47
1286.995,-60.79
1287.01,-60.7
1287.025,-60.7
1287.04,-60.31
1287.055,-60.25
1287.07,-60.1
1287.085,-60.63
1287.1,-60.83
1287.115,-60.72
1287.13,-60.64
1287.145,-60.86
1287.16,-60.69
1287.175,-60.77
1287.19,-60.51
1287.205,-60.81
1287.22,-60.84
1287.235,-60.61
1287.25,-60.61
1287.265,-60.31
1287.28,-60.27
1287.295,-60.26
1287.31,-60.38
1287.325,-60.71
1287.34,-60.51
1287.355,-60.15
1287.37,-60.18
1287.385,-60.16
1287.4,-60.36
1287.415,-60.38
1287.43,-60.24
1287.445,-61.02
1287.46,-60.62
1287.475,-60.74
1287.49,-60.71
1287.505,-60.66
1287.52,-61.44
1287.535,-61.24
1287.55,-61.73
1287.565,-61.55
1287.58,-61.26
1287.595,-61.17
1287.61,-60.95
1287.625,-60.66
1287.64,-61.12
1287.655,-60.81
1287.67,-60.87
1287.685,-60.76
1287.7,-60.42
1287.715,-61.37
1287.73,-61.1
1287.745,-61.32
1287.76,-61.27
1287.775,-61.37
1287.79,-61.23
1287.805,-60.68
1287.82,-60.29
1287.835,-60.41
1287.85,-60.5
1287.865,-60.4
1287.88,-60.51
1287.895,-59.94
1287.91,-60.5
1287.925,-60.51
1287.94,-60.45
1287.955,-60.27
1287.97,-60.02
1287.985,-59.87
1288.0,-59.89
1288.015,-59.43
1288.03,-59.58
1288.045,-59.58
1288.06,-59.59
1288.075,-59.76
1288.09,-59.1
1288.105,-59.25
1288.12,-59.49
1288.135,-59.63
1288.15,-59.32
1288.165,-59.29
1288.18,-59.96
1288.195,-60.37
1288.21,-60.05
1288.225,-59.72
1288.24,-60.06
1288.255,-60.41
1288.27,-60.16
1288.285,-59.46
1288.3,-59.46
1288.315,-59.77
1288.33,-59.37
1288.345,-59.43
1288.36,-59.37
1288.375,-59.68
1288.39,-60.44
1288.405,-60.33
1288.42,-60.36
1288.435,-60.5
1288.45,-60.39
1288.465,-61.05
1288.48,-60.47
1288.495,-60.91
1288.51,-60.87
1288.525,-60.45
1288.54,-60.79
1288.555,-59.89
1288.57,-59.92
1288.585,-59.74
1288.6,-59.57
1288.615,-59.94
1288.63,-59.82
1288.645,-59.7
1288.66,-60.14
1288.675,-60.01
1288.69,-60.3
1288.705,-60.33
1288.72,-59.94
1288.735,-60.34
1288.75,-59.67
1288.765,-59.67
1288.78,-59.63
1288.795,-59.7
1288.81,-59.97
1288.825,-59.94
1288.84,-60.08
1288.855,-60.66
1288.87,-60.33
1288.885,-60.52
1288.9,-60.65
1288.915,-60.31
1288.93,-60.83
1288.945,-60.27
1288.96,-60.63
1288.975,-60.65
1288.99,-60.65
1289.005,-61.01
1289.02,-60.97
1289.035,-60.66
1289.05,-61.76
1289.065,-61.29
1289.08,-61.51
1289.095,-61.8
1289.11,-61.54
1289.125,-62.0
1289.14,-61.27
1289.155,-61.94
1289.17,-62.05
1289.185,-61.24
1289.2,-61.17
1289.215,-60.87
1289.23,-60.77
1289.245,-60.82
1289.26,-60.25
1289.275,-60.63
1289.29,-60.97
1289.305,-61.09
1289.32,-60.93
1289.335,-60.53
1289.35,-60.9
1289.365,-60.77
1289.38,-60.64
1289.395,-60.15
1289.41,-60.08
1289.425,-59.8
1289.44,-59.93
1289.455,-59.76
1289.47,-59.57
1289.485,-59.96
1289.5,-59.18
1289.515,-59.22
1289.53,-59.36
1289.545,-59.31
1289.56,-59.51
1289.575,-59.34
1289.59,-59.46
1289.605,-59.76
1289.62,-59.56
1289.635,-59.88
1289.65,-59.81
1289.665,-59.68
1289.68,-59.83
1289.695,-59.34
1289.71,-59.71
1289.725,-59.56
1289.74,-59.38
1289.755,-59.75
1289.77,-59.99
1289.785,-59.9
1289.8,-59.93
1289.815,-59.34
1289.83,-59.97
1289.845,-60.24
1289.86,-59.38
1289.875,-59.5
1289.89,-59.58
1289.905,-60.1
1289.92,-60.48
1289.935,-59.73
1289.95,-59.82
1289.965,-59.84
1289.98,-59.91
1289.995,-60.02
1290.01,-59.16
1290.025,-59.34
1290.04,-60.07
1290.055,-59.47
1290.07,-59.51
1290.085,-59.08
1290.1,-59.39
1290.115,-59.83
1290.13,-59.29
1290.145,-59.17
1290.16,-59.32
1290.175,-59.11
1290.19,-59.3
1290.205,-59.04
1290.22,-58.88
1290.235,-59.57
1290.25,-59.46
1290.265,-59.64
1290.28,-59.06
1290.295,-59.2
1290.31,-59.62
1290.325,-59.45
1290.34,-59.72
1290.355,-59.71
1290.37,-60.18
1290.385,-60.72
1290.4,-60.65
1290.415,-60.13
1290.43,-60.61
1290.445,-60.59
1290.46,-60.63
1290.475,-60.19
1290.49,-59.62
1290.505,-60.6
1290.52,-60.37
1290.535,-60.23
1290.55,-60.16
1290.565,-60.01
1290.58,-60.72
1290.595,-60.82
1290.61,-60.25
1290.625,-60.36
1290.64,-60.13
1290.655,-60.0
1290.67,-59.87
1290.685,-59.42
1290.7,-60.0
1290.715,-59.57
1290.73,-59.94
1290.745,-60.19
1290.76,-60.41
1290.775,-60.31
1290.79,-60.78
1290.805,-60.51
1290.82,-60.74
1290.835,-60.65
1290.85,-60.07
1290.865,-60.47
1290.88,-60.16
1290.895,-59.94
1290.91,-59.77
1290.925,-59.31
1290.94,-59.61
1290.955,-60.2
1290.97,-59.78
1290.985,-60.3
1291.0,-59.9
1291.015,-60.35
1291.03,-60.86
1291.045,-60.2
1291.06,-60.09
1291.075,-60.38
1291.09,-60.56
1291.105,-60.68
1291.12,-60.02
1291.135,-60.25
1291.15,-61.0
1291.165,-60.27
1291.18,-60.04
1291.195,-59.95
1291.21,-60.14
1291.225,-60.56
1291.24,-59.86
1291.255,-59.61
1291.27,-60.0
1291.285,-60.73
1291.3,-60.98
1291.315,-60.45
1291.33,-60.29
1291.345,-60.86
1291.36,-60.99
1291.375,-60.11
1291.39,-59.79
1291.405,-59.76
1291.42,-60.2
1291.435,-59.92
1291.45,-59.4
1291.465,-59.54
1291.48,-60.24
1291.495,-60.72
1291.51,-60.21
1291.525,-59.9
1291.54,-60.44
1291.555,-60.98
1291.57,-60.63
1291.585,-59.84
1291.6,-59.7
1291.615,-60.15
1291.63,-60.43
1291.645,-59.86
1291.66,-60.08
1291.675,-61.03
1291.69,-61.57
1291.705,-61.19
1291.72,-61.05
1291.735,-61.11
1291.75,-61.56
1291.765,-60.8
1291.78,-60.22
1291.795,-60.04
1291.81,-59.98
1291.825,-60.81
1291.84,-59.84
1291.855,-59.77
1291.87,-60.28
1291.885,-61.03
1291.9,-60.7
1291.915,-60.14
1291.93,-60.45
1291.945,-61.31
1291.96,-60.91
1291.975,-60.56
1291.99,-60.09
1292.005,-60.94
1292.02,-61.53
1292.035,-61.04
1292.05,-60.48
1292.065,-60.84
1292.08,-61.23
1292.095,-61.2
1292.11,-60.45
1292.125,-60.17
1292.14,-60.48
1292.155,-60.76
1292.17,-60.38
1292.185,-60.15
1292.2,-61.01
1292.215,-61.35
1292.23,-61.23
1292.245,-60.59
1292.26,-61.13
1292.275,-61.69
1292.29,-61.43
1292.305,-60.59
1292.32,-60.58
1292.335,-61.05
1292.35,-61.54
1292.365,-60.72
1292.38,-60.68
1292.395,-61.02
1292.41,-61.94
1292.425,-61.22
1292.44,-60.7
1292.455,-60.82
1292.47,-61.65
1292.485,-61.42
1292.5,-60.66
1292.515,-60.45
1292.53,-61.44
1292.545,-62.31
1292.56,-61.61
1292.575,-61.0
1292.59,-61.61
1292.605,-63.15
1292.62,-63.07
1292.635,-61.5
1292.65,-61.55
1292.665,-62.29
1292.68,-62.27
1292.695,-61.64
1292.71,-60.76
1292.725,-61.36
1292.74,-62.23
1292.755,-61.82
1292.77,-61.1
1292.785,-61.39
1292.8,-62.25
1292.815,-62.44
1292.83,-61.19
1292.845,-61.0
1292.86,-61.56
1292.875,-62.19
1292.89,-61.32
1292.905,-61.61
1292.92,-62.05
1292.935,-62.8
1292.95,-62.74
1292.965,-62.04
1292.98,-61.83
1292.995,-62.65
1293.01,-62.43
1293.025,-61.13
1293.04,-60.66
1293.055,-60.96
1293.07,-61.77
1293.085,-61.27
1293.1,-60.8
1293.115,-60.94
1293.13,-62.27
1293.145,-62.23
1293.16,-61.32
1293.175,-61.02
1293.19,-61.91
1293.205,-62.41
1293.22,-61.82
1293.235,-61.11
1293.25,-62.03
1293.266,-62.85
1293.281,-62.36
1293.295,-61.38
1293.31,-61.8
1293.325,-62.58
1293.34,-62.24
1293.355,-61.34
1293.37,-60.92
1293.385,-61.09
1293.401,-61.68
1293.416,-60.75
1293.43,-60.93
1293.445,-60.82
1293.46,-61.83
1293.475,-61.89
1293.49,-61.36
1293.505,-61.43
1293.521,-62.25
1293.536,-62.38
1293.551,-61.23
1293.566,-60.76
1293.58,-60.85
1293.595,-61.33
1293.61,-60.84
1293.625,-60.21
1293.641,-60.4
1293.656,-61.4
1293.671,-61.25
1293.686,-60.74
1293.701,-60.26
1293.715,-60.99
1293.73,-61.25
1293.745,-60.62
1293.76,-59.89
1293.776,-60.36
1293.791,-60.53
1293.806,-60.35
1293.821,-60.11
1293.836,-60.05
1293.851,-60.85
1293.865,-61.55
1293.88,-60.38
1293.896,-60.39
1293.911,-60.32
1293.926,-60.62
1293.941,-60.59
1293.956,-59.8
1293.971,-59.79
1293.986,-60.73
1294.001,-60.83
1294.016,-60.32
1294.031,-60.19
1294.046,-60.63
1294.061,-61.53
1294.076,-60.92
1294.091,-60.57
1294.106,-60.63
1294.121,-61.31
1294.136,-60.94
1294.151,-60.62
1294.166,-60.48
1294.181,-61.42
1294.196,-62.06
1294.211,-61.35
1294.226,-60.97
1294.241,-61.35
1294.256,-61.8
1294.271,-60.98
1294.286,-60.24
1294.301,-60.32
1294.316,-60.77
1294.331,-60.49
1294.346,-60.22
1294.361,-60.39
1294.376,-61.18
1294.391,-61.79
1294.406,-61.26
1294.421,-60.9
1294.436,-61.01
1294.451,-61.95
1294.466,-61.31
1294.481,-60.64
1294.496,-60.76
1294.511,-61.29
1294.526,-61.66
1294.541,-60.69
1294.556,-60.57
1294.571,-61.03
1294.586,-61.81
1294.601,-60.94
1294.616,-60.33
1294.631,-60.51
1294.646,-61.46
1294.661,-61.08
1294.676,-60.61
1294.691,-60.36
1294.706,-61.54
1294.721,-62.19
1294.736,-61.41
1294.751,-61.15
1294.766,-61.68
1294.781,-62.45
1294.796,-62.29
1294.811,-61.46
1294.826,-61.13
1294.841,-61.79
1294.856,-62.31
1294.871,-61.37
1294.886,-61.36
1294.901,-61.61
1294.916,-62.44
1294.931,-62.88
1294.946,-61.53
1294.961,-61.76
1294.976,-62.88
1294.991,-62.35
1295.006,-61.1
1295.021,-61.06
1295.036,-61.38
1295.051,-61.83
1295.066,-61.55
1295.081,-61.25
1295.096,-61.42
1295.111,-62.69
1295.126,-62.08
1295.141,-61.63
1295.156,-61.85
1295.171,-62.31
1295.186,-62.28
1295.201,-61.46
1295.216,-60.73
1295.231,-61.77
1295.246,-62.02
1295.261,-61.68
1295.276,-61.15
1295.291,-61.38
1295.306,-62.98
1295.321,-62.46
1295.336,-62.05
1295.351,-61.91
1295.366,-62.1
1295.381,-62.56
1295.396,-62.25
1295.411,-61.23
1295.426,-62.33
1295.441,-62.96
1295.456,-62.77
1295.471,-62.43
1295.486,-62.25
1295.501,-62.69
1295.516,-63.07
1295.531,-61.69
1295.546,-61.56
1295.561,-61.87
1295.576,-62.28
1295.591,-61.65
1295.606,-61.66
1295.621,-62.29
1295.636,-63.9
1295.651,-62.66
1295.666,-62.18
1295.681,-61.83
1295.696,-62.59
1295.711,-62.45
1295.726,-61.08
1295.741,-60.78
1295.756,-61.71
1295.771,-61.7
1295.786,-61.23
1295.801,-60.96
1295.816,-61.11
1295.831,-62.28
1295.846,-61.91
1295.861,-60.75
1295.876,-60.97
1295.891,-61.76
1295.906,-62.3
1295.921,-61.55
1295.936,-60.51
1295.951,-61.45
1295.966,-61.89
1295.981,-60.91
1295.996,-60.71
1296.011,-61.1
1296.026,-61.75
1296.041,-62.02
1296.056,-61.13
1296.071,-60.96
1296.086,-61.99
1296.101,-61.59
1296.116,-60.64
1296.131,-60.54
1296.146,-60.56
1296.161,-61.16
1296.176,-60.93
1296.191,-60.14
1296.206,-60.72
1296.221,-61.1
1296.236,-60.15
1296.251,-59.75
1296.266,-59.25
1296.281,-60.11
1296.296,-60.28
1296.311,-59.52
1296.326,-59.67
1296.341,-59.96
1296.356,-60.0
1296.371,-60.27
1296.386,-59.36
1296.401,-59.48
1296.416,-60.41
1296.431,-59.83
1296.446,-59.35
1296.461,-59.21
1296.476,-59.17
1296.491,-59.88
1296.506,-59.41
1296.521,-59.13
1296.536,-59.52
1296.551,-59.59
1296.566,-59.5
1296.581,-59.17
1296.596,-59.13
1296.611,-59.83
1296.626,-59.77
1296.641,-59.08
1296.656,-59.32
1296.671,-59.84
1296.686,-60.13
1296.701,-59.72
1296.716,-59.13
1296.731,-59.71
1296.746,-60.35
1296.761,-59.64
1296.776,-59.64
1296.791,-59.65
1296.806,-59.97
1296.821,-59.81
1296.836,-59.21
1296.851,-59.1
1296.866,-59.8
1296.881,-59.61
1296.896,-59.0
1296.911,-58.79
1296.926,-59.24
1296.941,-59.83
1296.956,-59.29
1296.971,-59.12
1296.986,-59.59
1297.001,-59.84
1297.016,-59.57
1297.031,-59.15
1297.046,-59.36
1297.061,-59.89
1297.076,-60.21
1297.091,-59.33
1297.106,-59.38
1297.121,-60.13
1297.136,-60.08
1297.151,-59.77
1297.166,-59.52
1297.181,-59.56
1297.196,-60.53
1297.211,-59.73
1297.226,-59.45
1297.241,-59.91
1297.256,-60.59
1297.271,-60.76
1297.286,-60.06
1297.301,-60.23
1297.316,-60.93
1297.331,-61.03
1297.346,-59.99
1297.361,-60.22
1297.376,-60.5
1297.391,-60.72
1297.406,-60.42
1297.421,-59.6
1297.436,-59.8
1297.451,-60.53
1297.466,-60.04
1297.481,-60.01
1297.496,-60.12
1297.511,-60.41
1297.526,-60.9
1297.541,-60.2
1297.556,-59.96
1297.571,-60.88
1297.586,-60.71
1297.601,-60.51
1297.616,-60.35
1297.631,-60.6
1297.646,-61.25
1297.661,-61.04
1297.676,-60.22
1297.691,-60.6
1297.706,-60.93
1297.721,-61.24
1297.736,-60.69
1297.751,-60.11
1297.766,-60.6
1297.781,-60.76
1297.796,-60.19
1297.811,-60.29
1297.826,-61.0
1297.841,-60.87
1297.856,-60.95
1297.871,-60.4
1297.886,-60.43
1297.901,-61.52
1297.916,-61.26
1297.931,-60.64
1297.946,-60.51
1297.961,-60.79
1297.976,-60.61
1297.991,-60.41
1298.006,-59.74
1298.021,-60.52
1298.036,-60.5
1298.051,-59.93
1298.066,-59.85
1298.081,-59.98
1298.096,-60.6
1298.111,-60.54
1298.126,-59.65
1298.141,-59.89
1298.156,-60.49
1298.171,-60.05
1298.186,-60.23
1298.201,-59.96
1298.216,-60.37
1298.231,-60.88
1298.246,-60.47
1298.261,-60.16
1298.276,-60.93
1298.291,-60.82
1298.306,-60.34
1298.321,-60.43
1298.336,-60.3
1298.351,-61.34
1298.366,-61.11
1298.381,-60.25
1298.396,-60.93
1298.411,-61.43
1298.426,-61.28
1298.441,-60.96
1298.456,-60.37
1298.471,-61.09
1298.486,-61.64
1298.501,-60.54
1298.516,-60.22
1298.531,-60.21
1298.546,-60.74
1298.561,-61.78
1298.576,-60.6
1298.591,-60.87
1298.606,-61.84
1298.621,-61.55
1298.636,-60.83
1298.651,-60.32
1298.666,-61.0
1298.681,-61.67
1298.696,-60.78
1298.711,-60.23
1298.726,-60.66
1298.741,-61.51
1298.756,-61.3
1298.771,-60.84
1298.786,-61.36
1298.801,-62.4
1298.816,-62.15
1298.831,-60.91
1298.846,-60.89
1298.861,-62.02
1298.876,-62.2
1298.891,-61.82
1298.906,-61.56
1298.921,-61.79
1298.936,-63.18
1298.951,-62.25
1298.966,-61.6
1298.981,-62.46
1298.996,-63.15
1299.011,-62.55
1299.026,-61.78
1299.041,-61.54
1299.056,-62.58
1299.071,-62.46
1299.086,-61.36
1299.101,-60.73
1299.116,-61.37
1299.131,-61.65
1299.146,-61.32
1299.161,-60.79
1299.176,-61.72
1299.191,-62.77
1299.206,-61.74
1299.221,-61.38
1299.236,-61.73
1299.251,-62.06
1299.266,-62.44
1299.281,-61.31
1299.296,-61.15
1299.311,-62.32
1299.326,-61.95
1299.341,-61.25
1299.356,-60.73
1299.371,-60.53
1299.386,-61.7
1299.401,-61.25
1299.416,-60.22
1299.431,-60.54
1299.446,-61.55
1299.461,-61.7
1299.476,-60.81
1299.491,-60.1
1299.506,-60.83
1299.521,-61.82
1299.536,-61.37
1299.551,-60.91
1299.566,-60.34
1299.581,-60.93
1299.596,-60.53
1299.611,-60.19
1299.626,-59.92
1299.641,-60.58
1299.656,-60.6
1299.671,-60.08
1299.686,-59.75
1299.701,-60.19
1299.716,-60.14
1299.731,-60.04
1299.746,-59.39
1299.761,-59.98
1299.776,-60.37
1299.791,-59.63
1299.806,-59.21
1299.821,-59.72
1299.836,-60.03
1299.851,-59.74
1299.866,-59.37
1299.881,-59.21
1299.896,-59.93
1299.911,-59.61
1299.926,-59.33
1299.941,-58.96
1299.956,-59.46
1299.971,-59.45
1299.986,-59.1
1300.001,-59.0
1300.016,-59.47
1300.031,-59.95
1300.046,-59.74
1300.061,-59.38
1300.076,-59.92
1300.091,-60.13
1300.106,-59.87
1300.121,-59.6
1300.136,-60.28
1300.151,-60.87
1300.166,-61.01
1300.181,-60.59
1300.196,-60.22
1300.211,-60.74
1300.226,-60.6
1300.241,-60.0
1300.256,-60.33
1300.271,-60.62
1300.286,-60.71
1300.301,-60.57
1300.316,-60.3
1300.331,-60.54
1300.346,-60.64
1300.361,-60.38
1300.376,-60.97
1300.391,-60.91
1300.406,-61.16
1300.421,-61.28
1300.436,-61.24
1300.451,-61.19
1300.466,-61.27
1300.481,-60.96
1300.496,-61.66
1300.511,-62.13
1300.526,-61.25
1300.541,-61.34
1300.556,-61.26
1300.571,-61.19
1300.586,-61.38
1300.601,-61.54
1300.616,-61.05
1300.631,-61.89
1300.646,-61.7
1300.661,-62.14
1300.676,-61.89
1300.691,-61.66
1300.706,-61.88
1300.721,-62.5
1300.736,-62.11
1300.751,-62.95
1300.766,-62.91
1300.781,-63.13
1300.796,-63.38
1300.811,-63.61
1300.826,-62.84
1300.841,-62.79
1300.856,-63.0
1300.871,-63.02
1300.886,-63.29
1300.901,-62.94
1300.916,-63.18
1300.931,-63.35
1300.946,-63.63
1300.961,-63.62
1300.976,-63.59
1300.991,-63.45
1301.006,-62.46
1301.021,-62.17
1301.036,-62.21
1301.051,-62.55
1301.066,-62.42
1301.081,-61.84
1301.096,-62.68
1301.111,-64.01
1301.126,-63.4
1301.141,-62.1
1301.156,-62.11
1301.171,-62.3
1301.186,-62.18
1301.201,-61.69
1301.216,-61.87
1301.231,-62.74
1301.246,-63.03
1301.261,-61.89
1301.276,-61.28
1301.292,-61.51
1301.307,-61.74
1301.321,-61.66
1301.336,-61.43
1301.351,-61.73
1301.366,-62.68
1301.381,-62.15
1301.396,-61.5
1301.411,-61.47
1301.427,-61.28
1301.442,-61.62
1301.457,-60.78
1301.471,-60.53
1301.486,-61.75
1301.501,-61.85
1301.516,-60.84
1301.531,-61.16
1301.547,-61.24
1301.562,-61.08
1301.577,-61.02
1301.592,-60.27
1301.606,-60.74
1301.621,-61.45
1301.636,-60.6
1301.651,-60.37
1301.667,-60.67
1301.682,-60.72
1301.697,-60.91
1301.712,-59.81
1301.727,-59.9
1301.742,-60.87
1301.756,-60.5
1301.771,-60.09
1301.786,-59.83
1301.802,-60.27
1301.817,-60.18
1301.832,-59.96
1301.847,-59.44
1301.862,-60.01
1301.877,-60.13
1301.891,-60.02
1301.906,-59.69
1301.922,-59.89
1301.937,-60.1
1301.952,-60.03
1301.967,-59.79
1301.982,-59.67
1301.997,-60.37
1302.012,-60.54
1302.027,-60.49
1302.042,-60.2
1302.057,-60.49
1302.072,-60.31
1302.087,-60.53
1302.102,-60.42
1302.117,-60.15
1302.132,-60.36
1302.147,-60.49
1302.162,-60.05
1302.177,-60.17
1302.192,-60.21
1302.207,-60.08
1302.222,-60.15
1302.237,-59.89
1302.252,-60.2
1302.267,-60.16
1302.282,-60.02
1302.297,-59.97
1302.312,-60.11
1302.327,-60.33
1302.342,-60.21
1302.357,-60.6
1302.372,-60.63
1302.387,-60.87
1302.402,-60.64
1302.417,-60.33
1302.432,-60.85
1302.447,-60.54
1302.462,-60.75
1302.477,-61.64
1302.492,-60.61
1302.507,-60.92
1302.522,-61.05
1302.537,-60.76
1302.552,-60.69
1302.567,-61.08
1302.582,-60.99
1302.597,-61.52
1302.612,-61.63
1302.627,-60.8
1302.642,-61.22
1302.657,-61.09
1302.672,-60.56
1302.687,-60.91
1302.702,-60.8
1302.717,-61.37
1302.732,-61.79
1302.747,-61.15
1302.762,-61.75
1302.777,-61.54
1302.792,-61.04
1302.807,-60.63
1302.822,-61.31
1302.837,-61.1
1302.852,-61.23
1302.867,-61.6
1302.882,-61.16
1302.897,-61.79
1302.912,-61.6
1302.927,-61.08
1302.942,-61.51
1302.957,-61.66
1302.972,-61.26
1302.987,-61.72
1303.002,-61.3
1303.017,-60.86
1303.032,-61.15
1303.047,-60.78
1303.062,-60.77
1303.077,-61.25
1303.092,-60.65
1303.107,-60.35
1303.122,-60.6
1303.137,-60.26
1303.152,-60.45
1303.167,-60.25
1303.182,-59.92
1303.197,-60.22
1303.212,-60.48
1303.227,-59.91
1303.242,-60.23
1303.257,-59.88
1303.272,-59.89
1303.287,-60.23
1303.302,-59.94
1303.317,-60.24
1303.332,-60.45
1303.347,-59.93
1303.362,-59.81
1303.377,-59.84
1303.392,-59.37
1303.407,-59.47
1303.422,-59.21
1303.437,-59.15
1303.452,-59.62
1303.467,-59.56
1303.482,-58.97
1303.497,-59.59
1303.512,-59.39
1303.527,-59.07
1303.542,-59.27
1303.557,-59.02
1303.572,-59.23
1303.587,-59.35
1303.602,-59.14
1303.617,-59.06
1303.632,-59.43
1303.647,-59.18
1303.662,-59.3
1303.677,-59.69
1303.692,-59.3
1303.707,-59.41
1303.722,-59.28
1303.737,-59.1
1303.752,-59.39
1303.767,-58.88
1303.782,-58.74
1303.797,-59.37
1303.812,-59.66
1303.827,-59.09
1303.842,-58.99
1303.857,-59.1
1303.872,-59.11
1303.887,-59.48
1303.902,-58.92
1303.917,-59.18
1303.932,-59.77
1303.947,-59.28
1303.962,-59.18
1303.977,-59.33
1303.992,-59.57
1304.007,-59.63
1304.022,-59.55
1304.037,-59.41
1304.052,-60.03
1304.067,-59.85
1304.082,-59.34
1304.097,-59.79
1304.112,-60.43
1304.127,-59.77
1304.142,-59.53
1304.157,-59.3
1304.172,-59.63
1304.187,-60.34
1304.202,-59.66
1304.217,-59.47
1304.232,-60.29
1304.247,-60.34
1304.262,-59.63
1304.277,-59.52
1304.292,-60.13
1304.307,-60.59
1304.322,-60.49
1304.337,-59.7
1304.352,-59.94
1304.367,-60.4
1304.382,-60.06
1304.397,-59.66
1304.412,-59.82
1304.427,-60.85
1304.442,-60.52
1304.457,-60.2
1304.472,-59.96
1304.487,-60.29
1304.502,-60.46
1304.517,-60.01
1304.532,-60.14
1304.547,-60.34
1304.562,-61.11
1304.577,-60.28
1304.592,-60.14
1304.607,-60.41
1304.622,-60.47
1304.637,-60.28
1304.652,-60.08
1304.667,-60.33
1304.682,-60.37
1304.697,-60.27
1304.712,-59.72
1304.727,-60.24
1304.742,-60.89
1304.757,-60.82
1304.772,-60.27
1304.787,-60.46
1304.802,-60.69
1304.817,-60.38
1304.832,-60.13
1304.847,-60.23
1304.862,-61.01
1304.877,-60.75
1304.892,-59.91
1304.907,-60.26
1304.922,-60.41
1304.937,-60.34
1304.952,-60.14
1304.967,-59.89
1304.982,-60.2
1304.997,-60.37
1305.012,-59.59
1305.027,-59.59
1305.042,-60.35
1305.057,-60.38
1305.072,-60.21
1305.087,-60.16
1305.102,-60.3
1305.117,-60.11
1305.132,-60.16
1305.147,-59.89
1305.162,-60.38
1305.177,-61.18
1305.192,-60.17
1305.207,-60.03
1305.222,-60.28
1305.237,-60.13
1305.252,-59.86
1305.267,-59.83
1305.282,-60.08
1305.297,-60.03
1305.312,-59.86
1305.327,-59.01
1305.342,-59.18
1305.357,-60.11
1305.372,-60.19
1305.387,-59.73
1305.402,-59.66
1305.417,-60.16
1305.432,-60.14
1305.447,-59.95
1305.462,-59.54
1305.477,-60.21
1305.492,-60.45
1305.507,-59.55
1305.522,-59.4
1305.537,-59.38
1305.552,-60.11
1305.567,-59.51
1305.582,-59.46
1305.597,-59.49
1305.612,-60.02
1305.627,-59.6
1305.642,-59.34
1305.657,-59.3
1305.672,-59.86
1305.687,-59.75
1305.702,-59.34
1305.717,-59.55
1305.732,-60.1
1305.747,-59.81
1305.762,-59.12
1305.777,-59.01
1305.792,-59.32
1305.807,-59.67
1305.822,-59.28
1305.837,-59.17
1305.852,-59.52
1305.867,-59.58
1305.882,-59.14
1305.897,-59.39
1305.912,-59.14
1305.927,-59.49
1305.942,-59.46
1305.957,-59.18
1305.972,-59.32
1305.987,-59.79
1306.002,-59.18
1306.017,-59.04
1306.032,-59.3
1306.047,-59.05
1306.062,-59.3
1306.077,-58.9
1306.092,-58.99
1306.107,-59.46
1306.122,-59.48
1306.137,-58.92
1306.152,-59.23
1306.167,-59.25
1306.182,-58.98
1306.197,-59.06
1306.212,-58.86
1306.227,-58.99
1306.242,-59.42
1306.257,-58.92
1306.272,-58.78
1306.287,-59.17
1306.302,-58.87
1306.317,-59.03
1306.332,-59.18
1306.347,-59.52
1306.362,-59.49
1306.377,-59.16
1306.392,-58.81
1306.407,-59.14
1306.422,-59.67
1306.437,-59.39
1306.452,-59.65
1306.467,-59.54
1306.482,-59.25
1306.497,-59.64
1306.512,-59.73
1306.527,-59.47
1306.542,-60.16
1306.557,-59.99
1306.572,-60.12
1306.587,-60.1
1306.602,-60.02
1306.617,-59.92
1306.632,-60.38
1306.647,-59.75
1306.662,-60.16
1306.677,-60.45
1306.692,-60.07
1306.707,-59.9
1306.722,-60.2
1306.737,-59.73
1306.752,-60.07
1306.767,-60.13
1306.782,-60.17
1306.797,-60.42
1306.812,-60.26
1306.827,-60.06
1306.842,-60.1
1306.857,-60.41
1306.872,-60.14
1306.887,-60.84
1306.902,-60.3
1306.917,-60.53
1306.932,-60.91
1306.947,-60.53
1306.962,-60.15
1306.977,-60.49
1306.992,-60.56
1307.007,-60.45
1307.022,-61.32
1307.037,-60.77
1307.052,-61.17
1307.067,-61.13
1307.082,-60.97
1307.097,-60.82
1307.112,-60.66
1307.127,-60.54
1307.142,-60.42
1307.157,-60.56
1307.172,-60.51
1307.187,-60.73
1307.202,-60.44
1307.217,-60.37
1307.232,-60.92
1307.247,-60.87
1307.262,-60.67
1307.277,-60.83
1307.292,-61.0
1307.307,-61.71
1307.322,-61.81
1307.337,-61.71
1307.352,-61.34
1307.367,-61.41
1307.382,-61.49
1307.397,-61.38
1307.412,-61.6
1307.427,-61.58
1307.442,-60.64
1307.457,-60.17
1307.472,-60.09
1307.487,-60.55
1307.502,-60.34
1307.517,-60.17
1307.532,-60.41
1307.547,-60.86
1307.562,-60.71
1307.577,-60.05
1307.592,-60.02
1307.607,-60.96
1307.622,-60.61
1307.637,-60.12
1307.652,-60.27
1307.667,-60.34
1307.682,-60.52
1307.697,-60.26
1307.712,-60.17
1307.727,-60.65
1307.742,-61.14
1307.757,-60.16
1307.772,-59.98
1307.787,-60.92
1307.802,-60.96
1307.817,-60.2
1307.832,-59.94
1307.847,-60.18
1307.862,-60.58
1307.877,-60.5
1307.892,-59.57
1307.907,-60.16
1307.922,-60.78
1307.937,-60.33
1307.952,-59.67
1307.967,-60.14
1307.982,-61.04
1307.997,-60.88
1308.012,-60.77
1308.027,-60.2
1308.042,-61.02
1308.057,-61.19
1308.072,-60.02
1308.087,-60.0
1308.102,-60.76
1308.117,-60.89
1308.132,-60.22
1308.147,-60.8
1308.162,-61.44
1308.177,-62.27
1308.192,-61.62
1308.207,-60.97
1308.222,-62.11
1308.237,-62.71
1308.252,-61.39
1308.267,-61.37
1308.282,-63.03
1308.297,-62.98
1308.312,-61.88
1308.327,-61.53
1308.342,-62.11
1308.357,-63.76
1308.372,-62.84
1308.387,-61.31
1308.402,-62.28
1308.417,-63.47
1308.432,-61.78
1308.447,-62.3
1308.462,-63.0
1308.477,-63.93
1308.492,-63.42
1308.507,-62.95
1308.522,-64.11
1308.537,-66.32
1308.552,-64.69
1308.567,-62.8
1308.582,-64.01
1308.597,-65.67
1308.612,-63.31
1308.627,-62.9
1308.642,-63.87
1308.657,-64.52
1308.672,-64.38
1308.687,-62.4
1308.702,-62.03
1308.717,-63.76
1308.732,-62.72
1308.747,-61.64
1308.762,-62.28
1308.777,-63.61
1308.792,-62.08
1308.807,-61.61
1308.822,-62.73
1308.837,-63.39
1308.852,-65.15
1308.867,-63.22
1308.882,-62.41
1308.897,-64.99
1308.912,-64.11
1308.927,-62.52
1308.942,-62.69
1308.957,-64.26
1308.972,-64.0
1308.987,-62.97
1309.002,-61.8
1309.017,-62.63
1309.032,-63.34
1309.047,-62.08
1309.062,-61.61
1309.077,-63.01
1309.092,-63.11
1309.107,-61.9
1309.122,-61.71
1309.137,-61.96
1309.152,-62.7
1309.167,-61.87
1309.182,-60.94
1309.198,-61.2
1309.212,-62.45
1309.227,-61.49
1309.242,-60.68
1309.257,-61.31
1309.272,-62.0
1309.287,-61.6
1309.302,-60.61
1309.318,-61.11
1309.333,-61.59
1309.347,-60.67
1309.362,-59.71
1309.377,-59.74
1309.392,-60.76
1309.407,-60.33
1309.422,-59.6
1309.438,-59.42
1309.453,-59.64
1309.468,-59.75
1309.483,-59.32
1309.497,-59.43
1309.512,-59.79
1309.527,-59.62
1309.542,-58.87
1309.557,-58.73
1309.573,-59.44
1309.588,-59.08
1309.603,-58.89
1309.618,-58.69
1309.632,-59.08
1309.647,-59.07
1309.662,-58.8
1309.677,-58.88
1309.693,-59.5
1309.708,-59.87
1309.723,-59.17
1309.738,-59.15
1309.753,-59.92
1309.768,-59.82
1309.782,-59.49
1309.797,-59.33
1309.813,-59.72
1309.828,-59.58
1309.843,-59.4
1309.858,-58.74
1309.873,-59.18
1309.888,-59.69
1309.903,-58.88
1309.917,-58.78
1309.932,-59.52
1309.948,-59.34
1309.963,-59.09
1309.978,-58.95
1309.993,-59.07
1310.008,-59.81
1310.023,-59.37
1310.038,-58.97
1310.053,-59.21
1310.068,-59.9
1310.083,-59.39
1310.098,-59.1
1310.113,-59.55
1310.128,-59.42
1310.143,-60.29
1310.158,-59.48
1310.173,-59.15
1310.188,-59.55
1310.203,-59.86
1310.218,-59.3
1310.233,-59.17
1310.248,-59.47
1310.263,-59.63
1310.278,-59.31
1310.293,-58.77
1310.308,-58.86
1310.323,-59.18
1310.338,-59.07
1310.353,-58.93
1310.368,-59.01
1310.383,-59.7
1310.398,-59.23
1310.413,-58.97
1310.428,-59.12
1310.443,-60.14
1310.458,-60.06
1310.473,-59.36
1310.488,-59.37
1310.503,-59.69
1310.518,-59.87
1310.533,-59.4
1310.548,-59.3
1310.563,-59.78
1310.578,-59.72
1310.593,-59.51
1310.608,-59.16
1310.623,-59.99
1310.638,-60.07
1310.653,-59.36
1310.668,-59.2
1310.683,-59.42
1310.698,-59.57
1310.713,-59.18
1310.728,-59.11
1310.743,-59.69
1310.758,-59.63
1310.773,-59.47
1310.788,-59.3
1310.803,-59.95
1310.818,-59.88
1310.833,-59.32
1310.848,-59.12
1310.863,-59.56
1310.878,-59.68
1310.893,-59.21
1310.908,-59.22
1310.923,-59.53
1310.938,-59.45
1310.953,-59.3
1310.968,-59.07
1310.983,-59.54
1310.998,-59.71
1311.013,-58.92
1311.028,-58.79
1311.043,-58.9
1311.058,-59.42
1311.073,-58.88
1311.088,-58.53
1311.103,-58.6
1311.118,-59.0
1311.133,-59.23
1311.148,-58.46
1311.163,-58.7
1311.178,-59.2
1311.193,-59.52
1311.208,-58.99
1311.223,-58.7
1311.238,-59.3
1311.253,-59.45
1311.268,-58.91
1311.283,-58.79
1311.298,-59.32
1311.313,-59.46
1311.328,-59.22
1311.343,-58.97
1311.358,-59.44
1311.373,-60.15
1311.388,-59.45
1311.403,-59.12
1311.418,-59.57
1311.433,-59.94
1311.448,-59.0
1311.463,-58.93
1311.478,-59.32
1311.493,-59.7
1311.508,-59.4
1311.523,-58.94
1311.538,-59.26
1311.553,-59.92
1311.568,-59.73
1311.583,-59.02
1311.598,-59.21
1311.613,-59.88
1311.628,-59.48
1311.643,-59.08
1311.658,-59.54
1311.673,-60.13
1311.688,-59.9
1311.703,-59.56
1311.718,-60.02
1311.733,-60.79
1311.748,-60.66
1311.763,-59.81
1311.778,-59.81
1311.793,-60.44
1311.808,-59.78
1311.823,-59.56
1311.838,-60.14
1311.853,-60.61
1311.868,-60.36
1311.883,-59.84
1311.898,-60.3
1311.913,-60.8
1311.928,-60.97
1311.943,-60.1
1311.958,-60.3
1311.973,-61.05
1311.988,-60.6
1312.003,-60.03
1312.018,-60.51
1312.033,-61.3
1312.048,-61.2
1312.063,-60.45
1312.078,-60.68
1312.093,-61.42
1312.108,-62.25
1312.123,-60.8
1312.138,-60.48
1312.153,-61.36
1312.168,-61.24
1312.183,-60.77
1312.198,-60.43
1312.213,-60.79
1312.228,-60.74
1312.243,-60.38
1312.258,-60.03
1312.273,-60.55
1312.288,-61.08
1312.303,-60.24
1312.318,-60.31
1312.333,-61.26
1312.348,-61.04
1312.363,-60.34
1312.378,-60.12
1312.393,-60.51
1312.408,-60.52
1312.423,-60.27
1312.438,-59.71
1312.453,-60.2
1312.468,-60.72
1312.483,-60.08
1312.498,-59.83
1312.513,-60.67
1312.528,-60.74
1312.543,-60.04
1312.558,-59.84
1312.573,-60.21
1312.588,-60.4
1312.603,-60.34
1312.618,-60.35
1312.633,-60.35
1312.648,-61.04
1312.663,-60.41
1312.678,-59.86
1312.693,-60.59
1312.708,-60.54
1312.723,-59.98
1312.738,-59.63
1312.753,-59.76
1312.768,-59.72
1312.783,-59.79
1312.798,-59.66
1312.813,-59.73
1312.828,-59.82
1312.843,-59.66
1312.858,-59.28
1312.873,-59.91
1312.888,-60.0
1312.903,-59.58
1312.918,-59.34
1312.933,-59.62
1312.948,-59.67
1312.963,-59.51
1312.978,-59.31
1312.993,-59.6
1313.008,-59.57
1313.023,-59.6
1313.038,-59.42
1313.053,-59.49
1313.068,-59.95
1313.083,-59.55
1313.098,-59.13
1313.113,-59.21
1313.128,-59.54
1313.143,-59.49
1313.158,-59.36
1313.173,-59.69
1313.188,-59.54
1313.203,-59.28
1313.218,-59.31
1313.233,-59.87
1313.248,-59.57
1313.263,-59.82
1313.278,-60.16
1313.293,-60.16
1313.308,-60.33
1313.323,-60.04
1313.338,-59.67
1313.353,-60.12
1313.368,-60.13
1313.383,-59.88
1313.398,-59.71
1313.413,-59.99
1313.428,-59.83
1313.443,-60.06
1313.458,-60.37
1313.473,-60.05
1313.488,-60.08
1313.503,-59.87
1313.518,-59.42
1313.533,-59.89
1313.548,-60.0
1313.563,-59.74
1313.578,-59.62
1313.593,-59.73
1313.608,-59.88
1313.623,-59.49
1313.638,-59.81
1313.653,-59.31
1313.668,-59.08
1313.683,-59.09
1313.698,-58.89
1313.713,-59.1
1313.728,-59.17
1313.743,-59.05
1313.758,-58.96
1313.773,-59.37
1313.788,-59.4
1313.803,-59.11
1313.818,-59.33
1313.833,-59.4
1313.848,-59.22
1313.863,-59.33
1313.878,-59.11
1313.893,-59.58
1313.908,-59.36
1313.923,-59.2
1313.938,-59.13
1313.953,-59.26
1313.968,-59.19
1313.983,-59.21
1313.998,-59.18
1314.013,-59.35
1314.028,-59.14
1314.043,-58.65
1314.058,-58.73
1314.073,-58.81
1314.088,-58.88
1314.103,-58.94
1314.118,-58.78
1314.133,-59.02
1314.148,-59.08
1314.163,-59.06
1314.178,-58.84
1314.193,-59.16
1314.208,-59.17
1314.223,-58.81
1314.238,-58.44
1314.253,-58.93
1314.268,-59.0
1314.283,-58.35
1314.298,-58.16
1314.313,-58.4
1314.328,-58.49
1314.343,-58.41
1314.358,-58.35
1314.373,-58.49
1314.388,-58.98
1314.403,-58.48
1314.418,-58.28
1314.433,-58.82
1314.448,-58.97
1314.463,-58.48
1314.478,-58.55
1314.493,-59.08
1314.508,-59.19
1314.523,-59.27
1314.538,-58.91
1314.553,-59.1
1314.568,-59.05
1314.583,-58.75
1314.598,-58.5
1314.613,-58.59
1314.628,-59.07
1314.643,-58.52
1314.658,-58.32
1314.673,-58.88
1314.688,-59.39
1314.703,-59.09
1314.718,-58.79
1314.733,-59.27
1314.748,-59.53
1314.763,-59.11
1314.778,-58.91
1314.793,-59.14
1314.808,-59.67
1314.823,-59.22
1314.838,-58.98
1314.853,-59.5
1314.868,-59.95
1314.883,-59.55
1314.898,-58.93
1314.913,-59.46
1314.928,-59.9
1314.943,-59.22
1314.958,-59.06
1314.973,-59.91
1314.988,-59.9
1315.003,-59.31
1315.018,-59.16
1315.033,-59.24
1315.048,-60.04
1315.063,-59.82
1315.078,-59.36
1315.093,-59.65
1315.108,-59.95
1315.123,-59.77
1315.138,-59.49
1315.153,-60.1
1315.168,-60.26
1315.183,-59.7
1315.198,-59.3
1315.213,-60.06
1315.228,-60.64
1315.243,-60.57
1315.258,-60.08
1315.273,-60.05
1315.288,-61.11
1315.303,-61.0
1315.318,-60.15
1315.333,-61.01
1315.348,-61.26
1315.363,-60.53
1315.378,-60.42
1315.393,-60.63
1315.408,-60.79
1315.423,-60.98
1315.438,-60.69
1315.453,-60.67
1315.468,-61.67
1315.483,-61.28
1315.498,-60.43
1315.513,-61.16
1315.528,-61.28
1315.543,-60.89
1315.558,-60.46
1315.573,-61.46
1315.588,-61.59
1315.603,-61.63
1315.618,-61.89
1315.633,-61.69
1315.648,-61.31
1315.663,-61.56
1315.678,-61.19
1315.693,-61.23
1315.708,-61.86
1315.723,-61.9
1315.738,-61.14
1315.753,-61.58
1315.768,-61.86
1315.783,-61.23
1315.798,-61.14
1315.813,-61.27
1315.828,-60.85
1315.843,-61.18
1315.858,-61.17
1315.873,-60.62
1315.888,-61.29
1315.903,-61.33
1315.918,-60.68
1315.933,-61.05
1315.948,-61.71
1315.963,-61.35
1315.978,-60.68
1315.993,-61.17
1316.008,-61.15
1316.023,-61.09
1316.038,-61.78
1316.053,-61.61
1316.068,-61.39
1316.083,-61.84
1316.098,-61.02
1316.113,-61.21
1316.128,-61.4
1316.143,-60.9
1316.158,-60.23
1316.173,-60.41
1316.188,-60.51
1316.203,-60.31
1316.218,-60.2
1316.233,-59.89
1316.248,-59.61
1316.263,-59.55
1316.278,-60.31
1316.293,-59.84
1316.308,-60.18
1316.323,-60.29
1316.338,-59.62
1316.353,-60.0
1316.368,-60.27
1316.383,-59.99
1316.398,-59.58
1316.413,-59.92
1316.428,-59.72
1316.443,-59.28
1316.458,-59.25
1316.473,-59.27
1316.488,-59.06
1316.503,-59.01
1316.518,-59.07
1316.533,-59.14
1316.548,-59.55
1316.563,-59.56
1316.578,-59.1
1316.593,-59.4
1316.608,-59.42
1316.623,-59.31
1316.638,-59.26
1316.653,-59.69
1316.668,-59.7
1316.683,-59.77
1316.698,-59.93
1316.713,-59.51
1316.728,-59.4
1316.743,-59.7
1316.758,-59.64
1316.773,-59.36
1316.788,-59.34
1316.803,-59.28
1316.818,-59.14
1316.833,-59.59
1316.848,-59.55
1316.863,-59.18
1316.878,-59.48
1316.893,-59.19
1316.908,-59.05
1316.923,-59.38
1316.938,-59.41
1316.953,-59.04
1316.968,-59.05
1316.983,-59.42
1316.998,-59.15
1317.013,-59.0
1317.028,-59.18
1317.043,-59.38
1317.058,-59.04
1317.073,-58.88
1317.088,-58.71
1317.103,-59.01
1317.118,-59.09
1317.133,-58.86
1317.148,-58.9
1317.163,-59.38
1317.178,-59.34
1317.193,-58.97
1317.208,-59.39
1317.224,-59.7
1317.238,-59.42
1317.253,-59.26
1317.268,-59.77
1317.283,-59.75
1317.298,-59.4
1317.313,-58.89
1317.328,-59.51
1317.344,-59.84
1317.359,-59.74
1317.373,-59.15
1317.388,-59.31
1317.403,-59.4
1317.418,-59.29
1317.433,-59.11
1317.448,-59.33
1317.464,-59.89
1317.479,-59.26
1317.494,-59.13
1317.509,-59.77
1317.523,-59.83
1317.538,-59.27
1317.553,-58.89
1317.568,-59.54
1317.583,-59.8
1317.599,-59.17
1317.614,-59.04
1317.629,-59.11
1317.644,-59.58
1317.658,-59.13
1317.673,-58.87
1317.688,-59.16
1317.703,-59.14
1317.719,-58.78
1317.734,-58.87
1317.749,-59.2
1317.764,-58.96
1317.779,-58.63
1317.794,-58.71
1317.808,-59.4
1317.823,-59.39
1317.839,-59.09
1317.854,-58.89
1317.869,-59.13
1317.884,-59.25
1317.899,-59.11
1317.914,-59.08
1317.929,-59.34
1317.944,-59.28
1317.958,-59.0
1317.974,-59.18
1317.989,-59.36
1318.004,-59.12
1318.019,-58.91
1318.034,-58.94
1318.049,-58.64
1318.064,-58.9
1318.079,-59.03
1318.094,-58.96
1318.109,-59.08
1318.124,-59.15
1318.139,-58.93
1318.154,-59.06
1318.169,-59.04
1318.184,-59.08
1318.199,-59.1
1318.214,-59.08
1318.229,-59.24
1318.244,-59.34
1318.259,-59.95
1318.274,-59.67
1318.289,-59.05
1318.304,-59.46
1318.319,-59.77
1318.334,-59.06
1318.349,-59.03
1318.364,-59.01
1318.379,-59.03
1318.394,-59.07
1318.409,-59.23
1318.424,-59.17
1318.439,-59.21
1318.454,-59.4
1318.469,-58.94
1318.484,-59.42
1318.499,-59.77
1318.514,-59.53
1318.529,-59.07
1318.544,-59.74
1318.559,-59.82
1318.574,-59.24
1318.589,-59.08
1318.604,-59.54
1318.619,-59.43
1318.634,-59.65
1318.649,-59.55
1318.664,-59.27
1318.679,-59.26
1318.694,-59.28
1318.709,-59.51
1318.724,-59.56
1318.739,-59.96
1318.754,-59.47
1318.769,-59.23
1318.784,-59.99
1318.799,-60.21
1318.814,-59.94
1318.829,-60.01
1318.844,-59.84
1318.859,-59.85
1318.874,-59.94
1318.889,-59.96
1318.904,-60.17
1318.919,-60.03
1318.934,-59.91
1318.949,-59.83
1318.964,-60.02
1318.979,-59.98
1318.994,-59.59
1319.009,-59.34
1319.024,-60.2
1319.039,-60.48
1319.054,-60.42
1319.069,-59.85
1319.084,-60.34
1319.099,-60.43
1319.114,-60.54
1319.129,-60.34
1319.144,-60.65
1319.159,-60.7
1319.174,-60.59
1319.189,-60.27
1319.204,-60.55
1319.219,-60.43
1319.234,-60.04
1319.249,-60.06
1319.264,-59.56
1319.279,-59.9
1319.294,-60.0
1319.309,-59.8
1319.324,-60.0
1319.339,-60.12
1319.354,-60.13
1319.369,-59.98
1319.384,-60.09
1319.399,-60.2
1319.414,-60.35
1319.429,-60.54
1319.444,-60.53
1319.459,-60.27
1319.474,-61.16
1319.489,-60.98
1319.504,-60.22
1319.519,-60.24
1319.534,-61.06
1319.549,-60.32
1319.564,-60.85
1319.579,-60.55
1319.594,-60.39
1319.609,-60.63
1319.624,-60.78
1319.639,-60.74
1319.654,-60.2
1319.669,-60.54
1319.684,-60.78
1319.699,-60.88
1319.714,-60.65
1319.729,-60.57
1319.744,-60.1
1319.759,-60.42
1319.774,-61.27
1319.789,-60.61
1319.804,-60.5
1319.819,-60.54
1319.834,-60.28
1319.849,-60.33
1319.864,-60.53
1319.879,-60.37
1319.894,-60.46
1319.909,-60.34
1319.924,-60.46
1319.939,-60.51
1319.954,-60.1
1319.969,-60.31
1319.984,-60.24
1319.999,-60.32
1320.014,-61.01
1320.029,-60.68
1320.044,-60.12
1320.059,-60.58
1320.074,-61.49
1320.089,-60.56
1320.104,-60.75
1320.119,-60.72
1320.134,-60.6
1320.149,-60.74
1320.164,-60.36
1320.179,-60.37
1320.194,-60.45
1320.209,-60.21
1320.224,-60.29
1320.239,-60.56
1320.254,-60.6
1320.269,-60.35
1320.284,-60.02
1320.299,-60.6
1320.314,-61.06
1320.329,-60.28
1320.344,-60.02
1320.359,-60.74
1320.374,-60.81
1320.389,-60.76
1320.404,-60.62
1320.419,-60.72
1320.434,-60.53
1320.449,-60.49
1320.464,-60.35
1320.479,-59.99
1320.494,-59.75
1320.509,-59.81
1320.524,-59.93
1320.539,-59.81
1320.554,-59.91
1320.569,-59.19
1320.584,-59.3
1320.599,-60.23
1320.614,-59.5
1320.629,-59.15
1320.644,-59.68
1320.659,-60.23
1320.674,-59.63
1320.689,-59.59
1320.704,-60.47
1320.719,-60.43
1320.734,-60.53
1320.749,-60.29
1320.764,-60.46
1320.779,-60.49
1320.794,-60.2
1320.809,-60.1
1320.824,-60.12
1320.839,-60.64
1320.854,-60.11
1320.869,-59.79
1320.884,-60.87
1320.899,-61.09
1320.914,-60.05
1320.929,-59.73
1320.944,-60.21
1320.959,-61.0
1320.974,-60.09
1320.989,-60.34
1321.004,-61.11
1321.019,-60.92
1321.034,-60.32
1321.049,-60.45
1321.064,-61.16
1321.079,-60.26
1321.094,-60.28
1321.109,-59.79
1321.124,-60.21
1321.139,-60.72
1321.154,-59.88
1321.169,-59.92
1321.184,-60.71
1321.199,-60.83
1321.214,-60.11
1321.229,-60.36
1321.244,-60.94
1321.259,-60.45
1321.274,-60.3
1321.289,-60.59
1321.304,-61.13
1321.319,-60.35
1321.334,-60.19
1321.349,-61.09
1321.364,-61.1
1321.379,-60.33
1321.394,-59.87
1321.409,-60.97
1321.424,-61.05
1321.439,-60.21
1321.454,-60.48
1321.469,-61.09
1321.484,-62.06
1321.499,-61.1
1321.514,-60.97
1321.529,-61.81
1321.544,-61.99
1321.559,-61.16
1321.574,-61.62
1321.589,-62.97
1321.604,-61.96
1321.619,-61.59
1321.634,-62.44
1321.649,-62.98
1321.664,-61.57
1321.679,-61.4
1321.694,-62.56
1321.709,-62.08
1321.724,-61.11
1321.739,-60.69
1321.754,-61.11
1321.769,-62.33
1321.784,-61.31
1321.799,-60.96
1321.814,-61.45
1321.829,-62.5
1321.844,-61.46
1321.859,-61.31
1321.874,-62.55
1321.889,-62.14
1321.904,-60.97
1321.919,-61.41
1321.934,-62.82
1321.949,-62.53
1321.964,-61.38
1321.979,-61.85
1321.994,-62.81
1322.009,-61.57
1322.024,-60.95
1322.039,-60.94
1322.054,-62.19
1322.069,-61.31
1322.084,-61.04
1322.099,-60.93
1322.114,-62.14
1322.129,-62.23
1322.144,-60.89
1322.159,-61.42
1322.174,-62.89
1322.189,-62.14
1322.204,-61.22
1322.219,-61.83
1322.234,-63.22
1322.249,-62.0
1322.264,-61.45
1322.279,-62.29
1322.294,-62.95
1322.309,-62.23
1322.324,-61.58
1322.339,-62.01
1322.354,-62.43
1322.369,-61.68
1322.384,-61.54
1322.399,-62.48
1322.414,-61.99
1322.429,-60.97
1322.444,-61.53
1322.459,-61.8
1322.474,-62.04
1322.489,-60.98
1322.504,-61.44
1322.519,-62.67
1322.534,-62.15
1322.549,-61.21
1322.564,-62.08
1322.579,-62.86
1322.594,-61.5
1322.609,-61.23
1322.624,-61.33
1322.639,-62.04
1322.654,-61.36
1322.669,-60.94
1322.684,-61.45
1322.699,-61.76
1322.714,-61.07
1322.729,-61.08
1322.744,-61.21
1322.759,-61.71
1322.774,-60.72
1322.789,-60.49
1322.804,-61.25
1322.819,-61.5
1322.834,-60.44
1322.849,-60.37
1322.864,-61.52
1322.879,-60.9
1322.894,-60.29
1322.909,-60.63
1322.924,-61.41
1322.939,-60.42
1322.954,-60.4
1322.969,-61.12
1322.984,-61.2
1322.999,-60.96
1323.014,-60.79
1323.029,-61.11
1323.044,-62.15
1323.059,-61.56
1323.074,-60.8
1323.089,-61.44
1323.104,-62.39
1323.119,-61.58
1323.134,-61.03
1323.149,-62.01
1323.164,-62.51
1323.179,-61.12
1323.194,-60.91
1323.209,-61.93
1323.224,-61.8
1323.239,-60.43
1323.254,-60.85
1323.269,-61.87
1323.284,-61.31
1323.299,-60.61
1323.314,-60.31
1323.329,-61.38
1323.344,-61.28
1323.359,-60.42
1323.374,-60.09
1323.389,-60.92
1323.404,-61.16
1323.419,-60.11
1323.434,-60.57
1323.449,-61.67
1323.464,-60.93
1323.479,-60.15
1323.494,-60.41
1323.509,-60.92
1323.524,-59.92
1323.539,-59.81
1323.554,-60.34
1323.569,-60.5
1323.584,-59.48
1323.599,-59.65
1323.614,-60.2
1323.629,-60.58
1323.644,-59.64
1323.659,-59.61
1323.674,-60.48
1323.689,-60.31
1323.704,-59.56
1323.719,-59.95
1323.734,-60.49
1323.749,-60.76
1323.764,-60.37
1323.779,-60.14
1323.794,-60.55
1323.809,-60.86
1323.824,-60.08
1323.839,-60.2
1323.854,-61.12
1323.869,-60.38
1323.884,-60.01
1323.899,-60.27
1323.914,-61.16
1323.929,-60.16
1323.944,-60.04
1323.959,-60.73
1323.974,-60.51
1323.989,-60.19
1324.004,-59.73
1324.019,-60.47
1324.034,-60.54
1324.049,-59.91
1324.064,-59.53
1324.079,-60.55
1324.094,-60.2
1324.109,-59.43
1324.124,-59.58
1324.139,-59.85
1324.154,-60.13
1324.169,-59.29
1324.184,-59.32
1324.199,-59.92
1324.214,-59.66
1324.229,-59.23
1324.244,-59.61
1324.259,-60.11
1324.274,-59.49
1324.289,-59.05
1324.304,-59.67
1324.319,-59.96
1324.334,-59.28
1324.349,-59.26
1324.364,-59.89
1324.379,-60.49
1324.394,-59.82
1324.409,-59.5
1324.424,-60.12
1324.439,-60.13
1324.454,-59.32
1324.469,-59.39
1324.484,-59.93
1324.499,-59.71
1324.514,-59.15
1324.529,-59.19
1324.544,-59.9
1324.559,-59.71
1324.574,-59.04
1324.589,-59.44
1324.604,-60.13
1324.619,-59.49
1324.634,-59.13
1324.649,-59.99
1324.664,-60.22
1324.679,-59.35
1324.694,-59.65
1324.709,-60.29
1324.724,-60.0
1324.739,-59.56
1324.754,-59.42
1324.769,-59.63
1324.784,-59.64
1324.799,-59.62
1324.814,-59.44
1324.829,-59.9
1324.844,-59.57
1324.859,-59.34
1324.874,-59.68
1324.889,-60.26
1324.904,-60.65
1324.919,-59.61
1324.934,-59.63
1324.949,-60.63
1324.964,-60.2
1324.979,-59.61
1324.994,-60.05
1325.009,-60.5
1325.024,-59.71
1325.039,-59.44
1325.054,-60.16
1325.069,-60.35
1325.084,-59.43
1325.099,-59.56
1325.114,-60.48
1325.129,-59.93
1325.144,-59.83
1325.159,-59.68
1325.174,-60.04
1325.189,-59.94
1325.204,-59.59
1325.219,-59.76
1325.234,-59.81
1325.25,-59.92
1325.264,-59.53
1325.279,-59.57
1325.294,-60.56
1325.309,-60.13
1325.324,-59.63
1325.339,-60.11
1325.354,-60.5
1325.37,-59.63
1325.385,-59.22
1325.4,-60.09
1325.414,-60.01
1325.429,-59.45
1325.444,-59.65
1325.459,-60.36
1325.474,-60.02
1325.49,-59.43
1325.505,-60.03
1325.52,-60.31
1325.535,-60.33
1325.549,-60.03
1325.564,-60.42
1325.579,-60.56
1325.594,-60.38
1325.609,-60.09
1325.625,-60.42
1325.64,-60.42
1325.655,-59.96
1325.67,-59.82
1325.685,-60.31
1325.699,-59.79
1325.714,-59.53
1325.729,-59.31
1325.745,-60.04
1325.76,-60.1
1325.775,-59.39
1325.79,-59.38
1325.805,-60.06
1325.82,-59.6
1325.834,-59.02
1325.849,-59.62
1325.865,-60.13
1325.88,-59.42
1325.895,-59.05
1325.91,-59.11
1325.925,-59.49
1325.94,-59.4
1325.955,-58.8
1325.97,-59.12
1325.984,-59.27
1326.0,-58.79
1326.015,-58.63
1326.03,-59.18
1326.045,-59.11
1326.06,-58.66
1326.075,-58.94
1326.09,-59.27
1326.105,-59.02
1326.12,-58.57
1326.135,-59.06
1326.15,-59.12
1326.165,-58.65
1326.18,-58.81
1326.195,-59.43
1326.21,-59.58
1326.225,-58.86
1326.24,-59.05
1326.255,-59.58
1326.27,-59.34
1326.285,-59.23
1326.3,-59.11
1326.315,-58.97
1326.33,-59.09
1326.345,-58.63
1326.36,-58.3
1326.375,-59.05
1326.39,-59.11
1326.405,-58.46
1326.42,-58.53
1326.435,-59.04
1326.45,-58.76
1326.465,-58.35
1326.48,-58.75
1326.495,-59.31
1326.51,-58.92
1326.525,-58.65
1326.54,-59.45
1326.555,-59.4
1326.57,-58.65
1326.585,-58.79
1326.6,-59.28
1326.615,-59.01
1326.63,-58.58
1326.645,-59.1
1326.66,-59.36
1326.675,-59.02
1326.69,-58.8
1326.705,-59.65
1326.72,-59.58
1326.735,-59.54
1326.75,-59.29
1326.765,-59.54
1326.78,-59.53
1326.795,-59.6
1326.81,-59.52
1326.825,-60.12
1326.84,-60.03
1326.855,-59.92
1326.87,-59.6
1326.885,-59.79
1326.9,-59.62
1326.915,-59.3
1326.93,-59.63
1326.945,-59.91
1326.96,-60.47
1326.975,-59.76
1326.99,-59.79
1327.005,-60.85
1327.02,-60.99
1327.035,-59.84
1327.05,-60.33
1327.065,-61.43
1327.08,-60.79
1327.095,-60.42
1327.11,-61.43
1327.125,-62.25
1327.14,-61.25
1327.155,-61.16
1327.17,-62.99
1327.185,-62.09
1327.2,-60.72
1327.215,-60.7
1327.23,-61.77
1327.245,-61.37
1327.26,-60.7
1327.275,-61.33
1327.29,-62.01
1327.305,-61.09
1327.32,-61.04
1327.335,-61.91
1327.35,-61.96
1327.365,-62.1
1327.38,-61.86
1327.395,-62.38
1327.41,-62.31
1327.425,-62.31
1327.44,-62.71
1327.455,-63.33
1327.47,-62.91
1327.485,-62.53
1327.5,-62.54
1327.515,-62.34
1327.53,-62.48
1327.545,-62.14
1327.56,-62.23
1327.575,-63.57
1327.59,-62.71
1327.605,-61.82
1327.62,-62.83
1327.635,-63.26
1327.65,-62.07
1327.665,-61.55
1327.68,-62.9
1327.695,-62.7
1327.71,-61.51
1327.725,-61.97
1327.74,-62.5
1327.755,-62.21
1327.77,-61.13
1327.785,-61.89
1327.8,-62.14
1327.815,-61.33
1327.83,-60.77
1327.845,-61.38
1327.86,-61.07
1327.875,-60.59
1327.89,-60.93
1327.905,-61.34
1327.92,-61.2
1327.935,-60.51
1327.95,-60.78
1327.965,-60.23
1327.98,-60.31
1327.995,-60.63
1328.01,-60.45
1328.025,-59.93
1328.04,-60.34
1328.055,-60.91
1328.07,-60.14
1328.085,-59.79
1328.1,-60.11
1328.115,-60.27
1328.13,-59.53
1328.145,-59.45
1328.16,-59.88
1328.175,-59.45
1328.19,-59.86
1328.205,-59.94
1328.22,-59.71
1328.235,-59.83
1328.25,-60.23
1328.265,-60.14
1328.28,-59.76
1328.295,-59.93
1328.31,-59.81
1328.325,-59.92
1328.34,-59.63
1328.355,-60.11
1328.37,-60.29
1328.385,-60.02
1328.4,-60.06
1328.415,-60.3
1328.43,-59.95
1328.445,-59.49
1328.46,-59.61
1328.475,-59.73
1328.49,-59.78
1328.505,-59.52
1328.52,-60.0
1328.535,-59.93
1328.55,-59.61
1328.565,-59.66
1328.58,-59.46
1328.595,-59.35
1328.61,-59.9
1328.625,-60.03
1328.64,-59.79
1328.655,-59.68
1328.67,-60.41
1328.685,-59.98
1328.7,-59.79
1328.715,-60.03
1328.73,-60.22
1328.745,-59.95
1328.76,-59.69
1328.775,-60.12
1328.79,-60.02
1328.805,-60.45
1328.82,-60.69
1328.835,-60.41
1328.85,-60.34
1328.865,-61.2
1328.88,-61.13
1328.895,-60.85
1328.91,-61.29
1328.925,-61.78
1328.94,-61.49
1328.955,-61.08
1328.97,-61.82
1328.985,-62.03
1329.0,-61.53
1329.015,-61.56
1329.03,-61.93
1329.045,-61.64
1329.06,-61.06
1329.075,-61.39
1329.09,-61.82
1329.105,-61.38
1329.12,-61.08
1329.135,-61.69
1329.15,-61.53
1329.165,-61.22
1329.18,-61.39
1329.195,-60.9
1329.21,-60.69
1329.225,-61.24
1329.24,-61.39
1329.255,-60.74
1329.27,-60.63
1329.285,-61.04
1329.3,-60.88
1329.315,-60.85
1329.33,-60.94
1329.345,-61.54
1329.36,-60.76
1329.375,-60.57
1329.39,-60.85
1329.405,-60.18
1329.42,-60.45
1329.435,-60.95
1329.45,-60.82
1329.465,-60.42
1329.48,-60.93
1329.495,-60.8
1329.51,-60.82
1329.525,-60.59
1329.54,-60.78
1329.555,-60.75
1329.57,-60.89
1329.585,-60.96
1329.6,-61.02
1329.615,-60.68
1329.63,-60.47
1329.645,-60.51
1329.66,-60.53
1329.675,-60.14
1329.69,-60.29
1329.705,-60.37
1329.72,-60.43
1329.735,-60.07
1329.75,-60.43
1329.765,-60.52
1329.78,-60.31
1329.795,-60.54
1329.81,-60.2
1329.825,-60.07
1329.84,-60.5
1329.855,-61.17
1329.87,-60.28
1329.885,-60.27
1329.9,-60.87
1329.915,-60.87
1329.93,-60.23
1329.945,-60.49
1329.96,-61.35
1329.975,-60.57
1329.99,-60.1
1330.005,-60.58
1330.02,-60.8
1330.035,-60.24
1330.05,-60.31
1330.065,-60.86
1330.08,-60.59
1330.095,-60.24
1330.11,-60.63
1330.125,-61.0
1330.14,-60.42
1330.155,-60.31
1330.17,-60.84
1330.185,-61.11
1330.2,-60.42
1330.215,-60.61
1330.23,-61.4
1330.245,-60.98
1330.26,-60.3
1330.275,-60.67
1330.29,-61.35
1330.305,-60.44
1330.32,-60.27
1330.335,-60.81
1330.35,-60.7
1330.365,-60.13
1330.38,-60.36
1330.395,-60.91
1330.41,-61.35
1330.425,-60.33
1330.44,-60.37
1330.455,-61.33
1330.47,-60.98
1330.485,-60.33
1330.5,-60.68
1330.515,-61.37
1330.53,-60.54
1330.545,-60.36
1330.56,-61.16
1330.575,-61.08
1330.59,-60.04
1330.605,-60.16
1330.62,-61.02
1330.635,-61.1
1330.65,-60.9
1330.665,-60.89
1330.68,-61.28
1330.695,-61.52
1330.71,-60.94
1330.725,-61.02
1330.74,-61.48
1330.755,-61.04
1330.77,-60.58
1330.785,-61.07
1330.8,-61.51
1330.815,-60.68
1330.83,-60.53
1330.845,-60.85
1330.86,-60.56
1330.875,-59.97
1330.89,-60.15
1330.905,-60.4
1330.92,-59.96
1330.935,-59.64
1330.95,-59.92
1330.965,-60.03
1330.98,-59.76
1330.995,-59.91
1331.01,-60.44
1331.025,-60.0
1331.04,-59.7
1331.055,-60.05
1331.07,-60.35
1331.085,-60.04
1331.1,-59.85
1331.115,-60.03
1331.13,-59.96
1331.145,-59.58
1331.16,-59.75
1331.175,-60.03
1331.19,-59.42
1331.205,-59.24
1331.22,-59.64
1331.235,-60.08
1331.25,-60.11
1331.265,-60.79
1331.28,-60.54
1331.295,-59.82
1331.31,-60.51
1331.325,-60.79
1331.34,-60.38
1331.355,-60.11
1331.37,-60.88
1331.385,-60.99
1331.4,-60.2
1331.415,-60.01
1331.43,-60.81
1331.445,-60.68
1331.46,-60.11
1331.475,-60.49
1331.49,-60.57
1331.505,-60.46
1331.52,-60.04
1331.535,-60.73
1331.55,-60.67
1331.565,-60.12
1331.58,-60.24
1331.595,-60.72
1331.61,-60.47
1331.625,-60.21
1331.64,-60.22
1331.655,-59.74
1331.67,-59.77
1331.685,-60.15
1331.7,-59.99
1331.715,-59.92
1331.73,-60.09
1331.745,-59.94
1331.76,-59.91
1331.775,-59.86
1331.79,-60.05
1331.805,-59.94
1331.82,-59.87
1331.835,-59.75
1331.85,-59.81
1331.865,-60.01
1331.88,-59.93
1331.895,-60.04
1331.91,-59.98
1331.925,-59.92
1331.94,-60.06
1331.955,-60.18
1331.97,-60.1
1331.985,-59.96
1332.0,-60.04
1332.015,-59.93
1332.03,-60.03
1332.045,-59.99
1332.06,-60.0
1332.075,-59.98
1332.09,-59.96
1332.105,-59.87
1332.12,-60.02
1332.135,-60.06
1332.15,-59.99
1332.165,-60.08
1332.18,-59.98
1332.195,-60.49
1332.21,-60.84
1332.225,-60.55
1332.24,-60.07
1332.255,-59.99
1332.27,-59.44
1332.285,-59.46
1332.3,-60.16
1332.315,-59.86
1332.33,-59.38
1332.345,-59.6
1332.36,-60.12
1332.375,-59.75
1332.39,-59.42
1332.405,-59.56
1332.42,-59.47
1332.435,-59.56
1332.45,-59.55
1332.465,-59.37
1332.48,-59.33
1332.495,-59.6
1332.51,-59.51
1332.525,-59.4
1332.54,-59.36
1332.555,-59.42
1332.57,-59.5
1332.585,-59.38
1332.6,-59.4
1332.615,-59.55
1332.63,-59.53
1332.645,-59.36
1332.66,-59.68
1332.675,-59.56
1332.69,-59.48
1332.705,-59.23
1332.72,-59.31
1332.735,-59.14
1332.75,-59.39
1332.765,-59.38
1332.78,-59.52
1332.795,-59.7
1332.81,-59.37
1332.825,-59.5
1332.84,-59.57
1332.855,-59.85
1332.87,-59.79
1332.885,-59.75
1332.9,-59.8
1332.915,-59.78
1332.93,-59.87
1332.945,-59.63
1332.96,-59.78
1332.975,-59.64
1332.99,-59.91
1333.005,-59.58
1333.02,-59.64
1333.035,-59.61
1333.05,-59.5
1333.065,-59.63
1333.08,-59.4
1333.095,-59.58
1333.11,-59.57
1333.125,-59.56
1333.141,-59.46
1333.155,-59.91
1333.17,-59.69
1333.185,-59.64
1333.2,-59.63
1333.215,-59.42
1333.23,-59.39
1333.245,-59.52
1333.26,-59.45
1333.276,-59.23
1333.29,-59.32
1333.305,-59.45
1333.32,-59.19
1333.335,-59.16
1333.35,-59.47
1333.365,-59.51
1333.38,-59.18
1333.396,-59.2
1333.411,-59.64
1333.426,-60.11
1333.44,-59.36
1333.455,-59.27
1333.47,-60.02
1333.485,-59.8
1333.5,-59.16
1333.516,-59.48
1333.531,-60.27
1333.546,-59.59
1333.561,-59.17
1333.575,-59.75
1333.59,-59.78
1333.605,-59.23
1333.62,-59.14
1333.635,-59.75
1333.651,-59.57
1333.666,-58.9
1333.681,-59.24
1333.696,-59.71
1333.711,-59.32
1333.725,-59.09
1333.74,-59.85
1333.755,-59.81
1333.771,-59.12
1333.786,-59.08
1333.801,-59.63
1333.816,-59.38
1333.831,-58.97
1333.846,-59.51
1333.86,-59.93
1333.875,-59.04
1333.891,-58.89
1333.906,-59.55
1333.921,-59.76
1333.936,-58.97
1333.951,-58.97
1333.966,-59.88
1333.981,-59.37
1333.996,-58.77
1334.01,-59.46
1334.026,-59.91
1334.041,-59.16
1334.056,-59.17
1334.071,-59.83
1334.086,-59.87
1334.101,-59.14
1334.116,-59.38
1334.131,-60.1
1334.146,-59.71
1334.161,-59.07
1334.176,-59.57
1334.191,-59.99
1334.206,-59.19
1334.221,-59.17
1334.236,-59.86
1334.251,-59.76
1334.266,-59.08
1334.281,-59.39
1334.296,-60.16
1334.311,-59.57
1334.326,-59.37
1334.341,-59.76
1334.356,-60.06
1334.371,-59.3
1334.386,-59.22
1334.401,-60.0
1334.416,-59.73
1334.431,-59.31
1334.446,-59.84
1334.461,-60.5
1334.476,-59.76
1334.491,-59.74
1334.506,-60.6
1334.521,-60.91
1334.536,-59.88
1334.551,-59.86
1334.566,-60.85
1334.581,-60.36
1334.596,-59.85
1334.611,-60.03
1334.626,-60.82
1334.641,-59.88
1334.656,-59.75
1334.671,-60.41
1334.686,-60.6
1334.701,-59.76
1334.716,-59.8
1334.731,-60.84
1334.746,-60.34
1334.761,-59.91
1334.776,-60.38
1334.791,-61.07
1334.806,-60.06
1334.821,-60.07
1334.836,-60.99
1334.851,-60.66
1334.866,-59.78
1334.881,-60.05
1334.896,-60.82
1334.911,-60.42
1334.926,-59.85
1334.941,-60.27
1334.956,-61.18
1334.971,-60.41
1334.986,-60.04
1335.001,-60.57
1335.016,-61.0
1335.031,-60.36
1335.046,-60.46
1335.061,-61.08
1335.076,-60.96
1335.091,-60.32
1335.106,-60.37
1335.121,-61.09
1335.136,-60.26
1335.151,-60.01
1335.166,-60.45
1335.181,-60.64
1335.196,-59.93
1335.211,-60.19
1335.226,-60.91
1335.241,-60.59
1335.256,-60.08
1335.271,-60.51
1335.286,-61.35
1335.301,-60.53
1335.316,-60.15
1335.331,-60.5
1335.346,-61.01
1335.361,-60.42
1335.376,-60.48
1335.391,-61.0
1335.406,-60.65
1335.421,-60.29
1335.436,-61.42
1335.451,-61.04
1335.466,-59.88
1335.481,-59.96
1335.496,-60.55
1335.511,-59.77
1335.526,-59.28
1335.541,-59.94
1335.556,-60.31
1335.571,-59.7
1335.586,-59.69
1335.601,-60.4
1335.616,-60.55
1335.631,-59.83
1335.646,-60.32
1335.661,-61.45
1335.676,-60.76
1335.691,-59.97
1335.706,-60.66
1335.721,-61.54
1335.736,-60.49
1335.751,-60.19
1335.766,-61.12
1335.781,-60.63
1335.796,-59.65
1335.811,-59.96
1335.826,-60.59
1335.841,-59.84
1335.856,-59.54
1335.871,-60.58
1335.886,-60.67
1335.901,-59.96
1335.916,-59.78
1335.931,-60.45
1335.946,-60.24
1335.961,-59.7
1335.976,-59.82
1335.991,-60.6
1336.006,-60.27
1336.021,-59.61
1336.036,-59.93
1336.051,-59.95
1336.066,-59.64
1336.081,-59.29
1336.096,-59.92
1336.111,-59.99
1336.126,-59.44
1336.141,-59.72
1336.156,-60.13
1336.171,-59.79
1336.186,-59.43
1336.201,-60.15
1336.216,-60.18
1336.231,-59.64
1336.246,-59.62
1336.261,-60.3
1336.276,-60.23
1336.291,-59.54
1336.306,-59.86
1336.321,-60.5
1336.336,-60.25
1336.351,-59.97
1336.366,-60.68
1336.381,-60.65
1336.396,-60.2
1336.411,-60.07
1336.426,-60.93
1336.441,-59.89
1336.456,-59.57
1336.471,-60.68
1336.486,-60.79
1336.501,-59.91
1336.516,-60.17
1336.531,-61.1
1336.546,-60.39
1336.561,-59.98
1336.576,-60.23
1336.591,-60.9
1336.606,-60.19
1336.621,-59.83
1336.636,-60.43
1336.651,-60.75
1336.666,-59.51
1336.681,-59.3
1336.696,-60.07
1336.711,-60.3
1336.726,-59.56
1336.741,-59.77
1336.756,-60.53
1336.771,-59.67
1336.786,-59.46
1336.801,-60.2
1336.816,-60.69
1336.831,-60.08
1336.846,-60.23
1336.861,-60.84
1336.876,-60.33
1336.891,-59.92
1336.906,-60.23
1336.921,-60.87
1336.936,-59.93
1336.951,-59.79
1336.966,-60.15
1336.981,-60.28
1336.996,-59.39
1337.011,-59.47
1337.026,-60.25
1337.041,-59.9
1337.056,-59.64
1337.071,-59.89
1337.086,-60.72
1337.101,-59.86
1337.116,-59.71
1337.131,-60.1
1337.146,-60.46
1337.161,-60.05
1337.176,-59.98
1337.191,-60.33
1337.206,-60.26
1337.221,-59.92
1337.236,-60.08
1337.251,-60.33
1337.266,-59.97
1337.281,-59.75
1337.296,-59.72
1337.311,-59.83
1337.326,-59.64
1337.341,-59.44
1337.356,-59.58
1337.371,-59.34
1337.386,-59.14
1337.401,-59.31
1337.416,-59.58
1337.431,-59.15
1337.446,-59.06
1337.461,-59.33
1337.476,-59.25
1337.491,-59.25
1337.506,-59.11
1337.521,-59.48
1337.536,-59.45
1337.551,-59.21
1337.566,-59.21
1337.581,-59.54
1337.596,-59.1
1337.611,-58.94
1337.626,-59.24
1337.641,-59.35
1337.656,-58.93
1337.671,-58.87
1337.686,-59.45
1337.701,-59.6
1337.716,-58.84
1337.731,-59.01
1337.746,-59.39
1337.761,-58.97
1337.776,-58.84
1337.791,-59.16
1337.806,-59.33
1337.821,-58.9
1337.836,-58.86
1337.851,-59.25
1337.866,-59.28
1337.881,-58.69
1337.896,-58.84
1337.911,-59.34
1337.926,-58.8
1337.941,-58.74
1337.956,-59.17
1337.971,-59.63
1337.986,-59.11
1338.001,-59.0
1338.016,-59.4
1338.031,-59.63
1338.046,-59.47
1338.061,-59.41
1338.076,-59.64
1338.091,-59.42
1338.106,-59.15
1338.121,-59.19
1338.136,-59.57
1338.151,-58.83
1338.166,-58.62
1338.181,-59.36
1338.196,-59.32
1338.211,-58.6
1338.226,-58.88
1338.241,-59.51
1338.256,-58.88
1338.271,-58.47
1338.286,-59.02
1338.301,-59.58
1338.316,-58.94
1338.331,-58.76
1338.346,-59.55
1338.361,-59.56
1338.376,-58.89
1338.391,-59.14
1338.406,-59.77
1338.421,-59.41
1338.436,-59.02
1338.451,-59.58
1338.466,-60.08
1338.481,-59.19
1338.496,-59.12
1338.511,-59.76
1338.526,-59.62
1338.541,-58.87
1338.556,-59.21
1338.571,-59.7
1338.586,-59.21
1338.601,-58.84
1338.616,-59.32
1338.631,-59.72
1338.646,-59.07
1338.661,-59.04
1338.676,-60.01
1338.691,-59.73
1338.706,-58.92
1338.721,-59.4
1338.736,-59.97
1338.751,-59.35
1338.766,-59.09
1338.781,-59.49
1338.796,-59.74
1338.811,-59.08
1338.826,-59.15
1338.841,-59.87
1338.856,-59.53
1338.871,-59.0
1338.886,-59.41
1338.901,-60.12
1338.916,-59.49
1338.931,-59.08
1338.946,-59.79
1338.961,-60.0
1338.976,-59.19
1338.991,-59.16
1339.006,-60.11
1339.021,-60.28
1339.036,-59.26
1339.051,-59.12
1339.066,-59.66
1339.081,-59.44
1339.096,-58.75
1339.111,-59.28
1339.126,-59.8
1339.141,-59.38
1339.156,-60.09
1339.171,-60.19
1339.186,-59.45
1339.201,-59.48
1339.216,-60.03
1339.231,-59.64
1339.246,-59.09
1339.261,-59.56
1339.276,-60.24
1339.291,-59.56
1339.306,-59.27
1339.321,-60.03
1339.336,-59.93
1339.351,-59.33
1339.366,-59.34
1339.381,-60.05
1339.396,-59.83
1339.411,-59.16
1339.426,-59.48
1339.441,-59.91
1339.456,-59.31
1339.471,-58.94
1339.486,-59.7
1339.501,-59.59
1339.516,-59.05
1339.531,-59.24
1339.546,-60.0
1339.561,-59.67
1339.576,-59.24
1339.591,-59.57
1339.606,-60.23
1339.621,-59.59
1339.636,-59.2
1339.651,-59.92
1339.666,-59.94
1339.681,-59.14
1339.696,-59.33
1339.711,-60.14
1339.726,-59.91
1339.741,-59.3
1339.756,-59.87
1339.771,-60.2
1339.786,-59.69
1339.801,-59.41
1339.816,-60.24
1339.831,-60.22
1339.846,-59.59
1339.861,-59.7
1339.876,-59.67
1339.891,-59.7
1339.906,-59.71
1339.921,-59.46
1339.936,-59.78
1339.951,-59.95
1339.966,-60.04
1339.981,-59.88
1339.996,-60.08
1340.011,-59.98
1340.026,-59.61
1340.041,-59.72
1340.056,-60.05
1340.071,-60.09
1340.086,-60.03
1340.101,-60.24
1340.116,-60.23
1340.131,-60.29
1340.146,-60.14
1340.161,-59.51
1340.176,-60.11
1340.191,-60.41
1340.206,-60.1
1340.221,-59.86
1340.236,-60.8
1340.251,-60.7
1340.266,-60.41
1340.281,-60.0
1340.296,-60.83
1340.311,-60.76
1340.326,-59.97
1340.341,-60.41
1340.356,-60.74
1340.371,-60.3
1340.386,-59.82
1340.401,-60.54
1340.416,-60.55
1340.431,-60.02
1340.446,-59.96
1340.461,-60.72
1340.476,-60.5
1340.491,-59.93
1340.506,-60.32
1340.521,-60.9
1340.536,-60.51
1340.551,-59.95
1340.566,-59.85
1340.581,-59.78
1340.596,-59.88
1340.611,-59.81
1340.626,-59.71
1340.641,-59.93
1340.656,-59.89
1340.671,-59.69
1340.686,-59.86
1340.701,-59.71
1340.716,-60.0
1340.731,-59.85
1340.746,-59.76
1340.761,-59.69
1340.776,-59.76
1340.791,-59.71
1340.806,-59.77
1340.821,-59.72
1340.836,-59.78
1340.851,-59.74
1340.866,-59.63
1340.881,-60.29
1340.896,-60.21
1340.911,-59.43
1340.926,-59.74
1340.941,-60.23
1340.956,-59.71
1340.971,-59.05
1340.986,-59.18
1341.001,-59.08
1341.016,-59.05
1341.031,-59.14
1341.046,-59.15
1341.061,-59.09
1341.076,-59.06
1341.091,-59.13
1341.106,-59.14
1341.121,-59.06
1341.136,-59.19
1341.151,-59.27
1341.167,-59.2
1341.181,-58.99
1341.196,-58.98
1341.211,-58.91
1341.226,-58.94
1341.241,-58.94
1341.256,-58.96
1341.271,-58.76
1341.286,-58.91
1341.302,-58.86
1341.316,-58.72
1341.331,-58.68
1341.346,-58.64
1341.361,-58.77
1341.376,-58.63
1341.391,-58.72
1341.406,-58.28
1341.422,-58.18
1341.437,-58.53
1341.452,-58.73
1341.466,-58.09
1341.481,-58.25
1341.496,-58.77
1341.511,-58.41
1341.526,-58.04
1341.542,-58.28
1341.557,-58.47
1341.572,-58.41
1341.587,-58.55
1341.601,-58.76
1341.616,-58.6
1341.631,-58.58
1341.646,-58.68
1341.661,-58.76
1341.677,-58.78
1341.692,-58.66
1341.707,-58.85
1341.722,-58.65
1341.737,-58.51
1341.751,-58.58
1341.766,-58.75
1341.781,-58.7
1341.797,-58.44
1341.812,-58.47
1341.827,-58.5
1341.842,-58.5
1341.857,-58.3
1341.872,-58.45
1341.887,-58.47
1341.901,-58.32
1341.917,-58.39
1341.932,-58.32
1341.947,-58.39
1341.962,-58.43
1341.977,-58.54
1341.992,-58.98
1342.007,-59.43
1342.022,-58.97
1342.036,-58.82
1342.052,-59.54
1342.067,-59.52
1342.082,-59.53
1342.097,-59.29
1342.112,-59.35
1342.127,-59.43
1342.142,-59.26
1342.157,-59.03
1342.172,-59.16
1342.187,-59.21
1342.202,-59.38
1342.217,-59.28
1342.232,-59.49
1342.247,-59.37
1342.262,-59.33
1342.277,-59.33
1342.292,-59.55
1342.307,-59.65
1342.322,-59.57
1342.337,-59.7
1342.352,-59.95
1342.367,-59.7
1342.382,-59.62
1342.397,-59.64
1342.412,-59.82
1342.427,-60.24
1342.442,-59.61
1342.457,-59.55
1342.472,-60.46
1342.487,-60.45
1342.502,-59.57
1342.517,-59.71
1342.532,-60.42
1342.547,-60.1
1342.562,-59.58
1342.577,-60.31
1342.592,-60.73
1342.607,-60.14
1342.622,-59.73
1342.637,-60.43
1342.652,-60.53
1342.667,-59.82
1342.682,-60.0
1342.697,-59.87
1342.712,-59.99
1342.727,-60.12
1342.742,-59.95
1342.757,-60.07
1342.772,-60.18
1342.787,-60.11
1342.802,-60.37
1342.817,-60.34
1342.832,-60.41
1342.847,-60.51
1342.862,-60.61
1342.877,-60.77
1342.892,-60.52
1342.907,-60.4
1342.922,-60.37
1342.937,-60.49
1342.952,-60.51
1342.967,-60.45
1342.982,-60.05
1342.997,-59.94
1343.012,-59.71
1343.027,-59.64
1343.042,-59.86
1343.057,-59.79
1343.072,-59.78
1343.087,-59.2
1343.102,-59.4
1343.117,-59.27
1343.132,-59.42
1343.147,-59.32
1343.162,-59.69
1343.177,-59.58
1343.192,-59.61
1343.207,-59.55
1343.222,-59.64
1343.237,-59.6
1343.252,-59.43
1343.267,-59.54
1343.282,-59.69
1343.297,-59.36
1343.312,-59.29
1343.327,-59.3
1343.342,-59.35
1343.357,-59.14
1343.372,-59.13
1343.387,-59.19
1343.402,-59.36
1343.417,-59.41
1343.432,-59.5
1343.447,-59.82
1343.462,-59.63
1343.477,-59.59
1343.492,-59.48
1343.507,-59.68
1343.522,-60.23
1343.537,-59.48
1343.552,-59.37
1343.567,-60.13
1343.582,-59.88
1343.597,-59.31
1343.612,-59.37
1343.627,-59.95
1343.642,-59.45
1343.657,-59.09
1343.672,-59.32
1343.687,-59.29
1343.702,-59.33
1343.717,-59.46
1343.732,-59.22
1343.747,-59.15
1343.762,-59.19
1343.777,-59.34
1343.792,-59.38
1343.807,-59.09
1343.822,-59.41
1343.837,-59.52
1343.852,-59.46
1343.867,-59.47
1343.882,-59.41
1343.897,-59.6
1343.912,-59.49
1343.927,-59.47
1343.942,-60.07
1343.957,-59.4
1343.972,-59.37
1343.987,-60.28
1344.002,-59.98
1344.017,-59.47
1344.032,-59.73
1344.047,-60.19
1344.062,-59.48
1344.077,-59.19
1344.092,-59.85
1344.107,-59.77
1344.122,-59.79
1344.137,-59.76
1344.152,-60.21
1344.167,-59.72
1344.182,-59.86
1344.197,-59.88
1344.212,-59.77
1344.227,-59.72
1344.242,-59.6
1344.257,-59.67
1344.272,-59.73
1344.287,-59.51
1344.302,-59.81
1344.317,-59.81
1344.332,-59.7
1344.347,-59.61
1344.362,-59.6
1344.377,-59.28
1344.392,-59.07
1344.407,-59.36
1344.422,-59.74
1344.437,-59.19
1344.452,-58.93
1344.467,-59.35
1344.482,-59.25
1344.497,-58.84
1344.512,-58.9
1344.527,-58.86
1344.542,-58.86
1344.557,-58.95
1344.572,-58.78
1344.587,-58.79
1344.602,-58.82
1344.617,-58.84
1344.632,-58.84
1344.647,-58.94
1344.662,-59.04
1344.677,-59.19
1344.692,-59.34
1344.707,-59.44
1344.722,-59.35
1344.737,-59.29
1344.752,-59.45
1344.767,-59.33
1344.782,-59.39
1344.797,-59.02
1344.812,-58.73
1344.827,-58.88
1344.842,-59.18
1344.857,-58.53
1344.872,-58.31
1344.887,-58.76
1344.902,-58.69
1344.917,-58.37
1344.932,-58.61
1344.947,-58.54
1344.962,-58.7
1344.977,-58.52
1344.992,-58.36
1345.007,-58.6
1345.022,-58.61
1345.037,-58.57
1345.052,-58.43
1345.067,-58.5
1345.082,-58.64
1345.097,-58.39
1345.112,-58.51
1345.127,-58.61
1345.142,-58.71
1345.157,-58.12
1345.172,-58.42
1345.187,-58.45
1345.202,-58.37
1345.217,-58.37
1345.232,-58.0
1345.247,-58.12
1345.262,-58.63
1345.277,-58.4
1345.292,-58.21
1345.307,-58.45
1345.322,-58.67
1345.337,-58.36
1345.352,-58.31
1345.367,-58.65
1345.382,-58.69
1345.397,-58.61
1345.412,-58.7
1345.427,-58.7
1345.442,-58.54
1345.457,-58.66
1345.472,-58.89
1345.487,-58.75
1345.502,-58.68
1345.517,-58.86
1345.532,-59.0
1345.547,-59.07
1345.562,-59.02
1345.577,-59.29
1345.592,-59.36
1345.607,-59.01
1345.622,-59.5
1345.637,-59.87
1345.652,-59.24
1345.667,-59.31
1345.682,-60.11
1345.697,-59.41
1345.712,-58.94
1345.727,-59.29
1345.742,-59.73
1345.757,-59.1
1345.772,-59.14
1345.787,-59.46
1345.802,-59.48
1345.817,-59.46
1345.832,-59.61
1345.847,-59.72
1345.862,-59.69
1345.877,-59.88
1345.892,-60.26
1345.907,-59.59
1345.922,-59.53
1345.937,-60.28
1345.952,-59.97
1345.967,-59.41
1345.982,-59.85
1345.997,-60.31
1346.012,-59.55
1346.027,-59.4
1346.042,-59.97
1346.057,-60.2
1346.072,-59.57
1346.087,-59.53
1346.102,-60.4
1346.117,-59.94
1346.132,-59.38
1346.147,-59.56
1346.162,-60.49
1346.177,-59.76
1346.192,-60.08
1346.207,-60.47
1346.222,-59.74
1346.237,-60.03
1346.252,-61.09
1346.267,-60.39
1346.282,-59.9
1346.297,-60.67
1346.312,-60.98
1346.327,-59.79
1346.342,-59.78
1346.357,-60.64
1346.372,-60.51
1346.387,-59.86
1346.402,-60.46
1346.417,-61.26
1346.432,-60.24
1346.447,-59.94
1346.462,-60.74
1346.477,-60.75
1346.492,-60.16
1346.507,-60.83
1346.522,-61.03
1346.537,-60.39
1346.552,-60.2
1346.567,-60.97
1346.582,-60.53
1346.597,-59.77
1346.612,-60.64
1346.627,-60.49
1346.642,-59.43
1346.657,-59.65
1346.672,-60.57
1346.687,-59.82
1346.702,-59.47
1346.717,-59.91
1346.732,-60.33
1346.747,-59.59
1346.762,-59.34
1346.777,-60.22
1346.792,-60.32
1346.807,-59.57
1346.822,-59.93
1346.837,-60.67
1346.852,-59.97
1346.867,-59.52
1346.882,-59.88
1346.897,-59.88
1346.912,-59.64
1346.927,-60.52
1346.942,-59.84
1346.957,-59.41
1346.972,-59.79
1346.987,-60.28
1347.002,-59.6
1347.017,-59.33
1347.032,-59.96
1347.047,-59.96
1347.062,-59.27
1347.077,-59.54
1347.092,-60.34
1347.107,-59.78
1347.122,-59.47
1347.137,-59.9
1347.152,-60.51
1347.167,-59.83
1347.182,-60.01
1347.197,-59.96
1347.212,-59.72
1347.227,-59.66
1347.242,-59.7
1347.257,-59.7
1347.272,-59.61
1347.287,-59.64
1347.302,-59.5
1347.317,-59.45
1347.332,-59.64
1347.347,-60.4
1347.362,-59.95
1347.377,-59.47
1347.392,-59.95
1347.407,-60.71
1347.422,-59.93
1347.437,-59.84
1347.452,-60.29
1347.467,-60.54
1347.482,-59.99
1347.497,-59.85
1347.512,-59.73
1347.527,-59.91
1347.542,-59.63
1347.557,-59.54
1347.572,-59.58
1347.587,-59.48
1347.602,-59.46
1347.617,-59.28
1347.632,-59.83
1347.647,-59.5
1347.662,-59.88
1347.677,-59.69
1347.692,-59.28
1347.707,-59.75
1347.722,-60.33
1347.737,-59.93
1347.752,-59.61
1347.767,-60.28
1347.782,-60.45
1347.797,-59.63
1347.812,-59.85
1347.827,-60.38
1347.842,-60.0
1347.857,-59.63
1347.872,-60.46
1347.887,-60.47
1347.902,-59.79
1347.917,-60.34
1347.932,-60.1
1347.947,-59.73
1347.962,-60.05
1347.977,-60.73
1347.992,-60.29
1348.007,-60.06
1348.022,-60.64
1348.037,-61.06
1348.052,-60.39
1348.067,-60.42
1348.082,-60.87
1348.097,-59.8
1348.112,-59.88
1348.127,-60.64
1348.142,-60.32
1348.157,-59.58
1348.172,-59.94
1348.187,-60.46
1348.202,-59.6
1348.217,-59.43
1348.232,-60.32
1348.247,-60.56
1348.262,-59.7
1348.277,-59.68
1348.292,-60.66
1348.307,-60.52
1348.322,-60.14
1348.337,-60.99
1348.352,-60.31
1348.367,-59.97
1348.382,-61.1
1348.397,-61.14
1348.412,-59.88
1348.427,-60.09
1348.442,-60.84
1348.457,-60.67
1348.472,-59.82
1348.487,-60.07
1348.502,-60.74
1348.517,-60.16
1348.532,-59.84
1348.547,-60.79
1348.562,-61.08
1348.577,-60.57
1348.592,-61.07
1348.607,-61.33
1348.622,-61.06
1348.637,-60.63
1348.652,-61.52
1348.667,-60.95
1348.682,-60.58
1348.697,-61.42
1348.712,-61.22
1348.727,-60.23
1348.742,-60.52
1348.757,-61.11
1348.772,-60.53
1348.787,-59.99
1348.802,-60.77
1348.817,-60.98
1348.832,-59.93
1348.847,-59.92
1348.862,-59.95
1348.877,-59.69
1348.892,-60.13
1348.907,-60.33
1348.922,-59.87
1348.937,-59.73
1348.952,-60.58
1348.967,-60.49
1348.982,-59.74
1348.997,-60.11
1349.012,-60.39
1349.027,-60.07
1349.042,-59.38
1349.057,-59.85
1349.072,-59.99
1349.087,-59.53
1349.102,-60.39
1349.117,-60.9
1349.132,-59.7
1349.147,-59.65
1349.162,-59.96
1349.177,-59.59
1349.193,-59.36
1349.207,-60.09
1349.222,-59.99
1349.237,-59.37
1349.252,-59.67
1349.267,-60.04
1349.282,-59.75
1349.297,-59.35
1349.313,-59.77
1349.328,-59.55
1349.343,-58.94
1349.357,-59.07
1349.372,-59.5
1349.387,-58.74
1349.402,-58.52
1349.417,-59.32
1349.432,-59.21
1349.448,-58.58
1349.463,-58.99
1349.478,-58.97
1349.492,-58.8
1349.507,-58.97
1349.522,-59.32
1349.537,-59.18
1349.552,-58.84
1349.568,-59.16
1349.583,-58.97
1349.598,-58.48
1349.613,-58.75
1349.628,-59.33
1349.642,-58.7
1349.657,-58.32
1349.672,-58.94
1349.688,-59.04
1349.703,-58.59
1349.718,-58.84
1349.733,-59.16
1349.748,-58.74
1349.763,-58.76
1349.777,-59.18
1349.792,-58.98
1349.807,-58.52
1349.823,-58.87
1349.838,-59.32
1349.853,-59.01
1349.868,-59.52
1349.883,-59.91
1349.898,-59.13
1349.913,-58.85
1349.927,-59.28
1349.943,-58.95
1349.958,-58.61
1349.973,-58.86
1349.988,-58.98
1350.003,-58.52
1350.018,-58.67
1350.033,-58.96
1350.048,-59.04
1350.063,-58.62
1350.078,-58.96
1350.093,-59.17
1350.108,-58.72
1350.123,-58.56
1350.138,-59.35
1350.153,-59.34
1350.168,-59.64
1350.183,-60.04
1350.198,-59.58
1350.213,-59.14
1350.228,-59.59
1350.243,-59.64
1350.258,-59.21
1350.273,-59.11
1350.288,-59.97
1350.303,-59.57
1350.318,-59.1
1350.333,-59.57
1350.348,-59.81
1350.363,-59.55
1350.378,-59.27
1350.393,-59.13
1350.408,-59.26
1350.423,-59.26
1350.438,-59.23
1350.453,-59.1
1350.468,-58.83
1350.483,-59.39
1350.498,-59.54
1350.513,-58.88
1350.528,-58.69
1350.543,-59.15
1350.558,-59.0
1350.573,-58.46
1350.588,-58.88
1350.603,-59.14
1350.618,-58.77
1350.633,-58.3
1350.648,-58.48
1350.663,-58.7
1350.678,-58.61
1350.693,-58.63
1350.708,-58.59
1350.723,-58.17
1350.738,-58.36
1350.753,-58.79
1350.768,-58.25
1350.783,-58.18
1350.798,-58.63
1350.813,-58.65
1350.828,-58.03
1350.843,-58.11
1350.858,-58.51
1350.873,-58.04
1350.888,-57.7
1350.903,-58.03
1350.918,-58.26
1350.933,-57.9
1350.948,-58.47
1350.963,-58.36
1350.978,-58.02
1350.993,-58.24
1351.008,-58.75
1351.023,-58.39
1351.038,-58.07
1351.053,-58.55
1351.068,-58.83
1351.083,-58.47
1351.098,-58.29
1351.113,-58.81
1351.128,-58.76
1351.143,-58.05
1351.158,-58.19
1351.173,-58.35
1351.188,-57.86
1351.203,-58.01
1351.218,-58.4
1351.233,-58.13
1351.248,-58.14
1351.263,-58.59
1351.278,-58.56
1351.293,-57.96
1351.308,-58.09
1351.323,-58.46
1351.338,-58.05
1351.353,-57.96
1351.368,-58.32
1351.383,-58.46
1351.398,-58.45
1351.413,-58.58
1351.428,-58.81
1351.443,-58.48
1351.458,-58.57
1351.473,-58.78
1351.488,-58.69
1351.503,-58.34
1351.518,-58.46
1351.533,-58.61
1351.548,-58.09
1351.563,-58.32
1351.578,-58.99
1351.593,-58.44
1351.608,-58.21
1351.623,-58.69
1351.638,-59.07
1351.653,-58.79
1351.668,-58.96
1351.683,-59.09
1351.698,-58.77
1351.713,-59.12
1351.728,-59.65
1351.743,-59.12
1351.758,-58.67
1351.773,-59.29
1351.788,-59.63
1351.803,-58.9
1351.818,-58.95
1351.833,-59.68
1351.848,-59.67
1351.863,-58.93
1351.878,-59.29
1351.893,-60.11
1351.908,-59.44
1351.923,-59.79
1351.938,-60.27
1351.953,-59.61
1351.968,-59.64
1351.983,-60.06
1351.998,-59.97
1352.013,-59.3
1352.028,-59.4
1352.043,-59.98
1352.058,-59.32
1352.073,-58.96
1352.088,-59.09
1352.103,-59.1
1352.118,-58.76
1352.133,-59.26
1352.148,-59.27
1352.163,-59.33
1352.178,-59.15
1352.193,-59.69
1352.208,-59.75
1352.223,-59.38
1352.238,-59.68
1352.253,-59.88
1352.268,-59.29
1352.283,-59.59
1352.298,-59.58
1352.313,-59.62
1352.328,-59.65
1352.343,-59.75
1352.358,-59.4
1352.373,-59.41
1352.388,-59.44
1352.403,-59.47
1352.418,-59.48
1352.433,-59.0
1352.448,-59.3
1352.463,-59.49
1352.478,-60.08
1352.493,-59.52
1352.508,-59.58
1352.523,-60.03
1352.538,-60.46
1352.553,-60.42
1352.568,-60.25
1352.583,-60.12
1352.598,-60.28
1352.613,-60.17
1352.628,-60.11
1352.643,-60.13
1352.658,-60.18
1352.673,-59.93
1352.688,-59.96
1352.703,-59.66
1352.718,-59.4
1352.733,-59.44
1352.748,-59.55
1352.763,-59.56
1352.778,-59.43
1352.793,-59.52
1352.808,-59.44
1352.823,-59.61
1352.838,-59.57
1352.853,-59.57
1352.868,-59.53
1352.883,-59.58
1352.898,-59.41
1352.913,-59.39
1352.928,-59.32
1352.943,-59.23
1352.958,-59.05
1352.973,-59.16
1352.988,-59.3
1353.003,-59.39
1353.018,-59.29
1353.033,-59.45
1353.048,-59.75
1353.063,-59.59
1353.078,-59.62
1353.093,-59.74
1353.108,-60.21
1353.123,-60.34
1353.138,-60.12
1353.153,-60.04
1353.168,-59.88
1353.183,-59.81
1353.198,-59.55
1353.213,-59.42
1353.228,-59.33
1353.243,-59.46
1353.258,-59.22
1353.273,-59.08
1353.288,-58.79
1353.303,-59.28
1353.318,-59.33
1353.333,-58.84
1353.348,-59.07
1353.363,-59.29
1353.378,-59.27
1353.393,-59.24
1353.408,-58.95
1353.423,-59.37
1353.438,-59.92
1353.453,-59.58
1353.468,-59.41
1353.483,-58.93
1353.498,-59.34
1353.513,-59.19
1353.528,-58.98
1353.543,-58.75
1353.558,-59.12
1353.573,-59.16
1353.588,-59.42
1353.603,-58.99
1353.618,-59.12
1353.633,-59.36
1353.648,-59.13
1353.663,-58.98
1353.678,-59.16
1353.693,-59.34
1353.708,-59.5
1353.723,-59.3
1353.738,-59.1
1353.753,-59.55
1353.768,-59.43
1353.783,-59.82
1353.798,-59.43
1353.813,-59.36
1353.828,-59.44
1353.843,-59.53
1353.858,-59.2
1353.873,-59.27
1353.888,-59.76
1353.903,-59.58
1353.918,-59.7
1353.933,-59.22
1353.948,-59.35
1353.963,-59.46
1353.978,-59.43
1353.993,-59.45
1354.008,-59.43
1354.023,-59.43
1354.038,-59.56
1354.053,-59.46
1354.068,-59.27
1354.083,-59.41
1354.098,-59.43
1354.113,-59.5
1354.128,-59.49
1354.143,-59.58
1354.158,-59.35
1354.173,-59.36
1354.188,-59.43
1354.203,-59.76
1354.218,-59.7
1354.233,-59.75
1354.248,-59.59
1354.263,-59.84
1354.278,-59.97
1354.293,-60.1
1354.308,-60.01
1354.323,-59.81
1354.338,-60.52
1354.353,-60.43
1354.368,-60.28
1354.383,-60.14
1354.398,-60.07
1354.413,-60.48
1354.428,-60.12
1354.443,-59.74
1354.458,-60.07
1354.473,-60.33
1354.488,-60.2
1354.503,-59.59
1354.518,-59.41
1354.533,-59.9
1354.548,-59.93
1354.563,-59.75
1354.578,-59.89
1354.593,-59.18
1354.608,-59.77
1354.623,-59.75
1354.638,-59.38
1354.653,-59.22
1354.668,-59.76
1354.683,-59.9
1354.698,-59.79
1354.713,-59.6
1354.728,-59.8
1354.743,-60.0
1354.758,-59.96
1354.773,-59.98
1354.788,-59.5
1354.803,-59.49
1354.818,-60.01
1354.833,-59.93
1354.848,-59.81
1354.863,-60.16
1354.878,-59.96
1354.893,-60.07
1354.908,-60.0
1354.923,-59.71
1354.938,-60.01
1354.953,-60.19
1354.968,-60.36
1354.983,-60.26
1354.998,-59.98
1355.013,-60.06
1355.028,-60.23
1355.043,-60.14
1355.058,-59.83
1355.073,-59.39
1355.088,-59.6
1355.103,-60.15
1355.118,-59.66
1355.133,-59.53
1355.148,-59.05
1355.163,-59.54
1355.178,-59.76
1355.193,-59.8
1355.208,-59.55
1355.223,-59.7
1355.238,-59.73
1355.253,-60.26
1355.268,-59.53
1355.283,-59.38
1355.298,-59.88
1355.313,-59.59
1355.328,-59.57
1355.343,-59.39
1355.358,-59.28
1355.373,-59.33
1355.388,-59.5
1355.403,-59.12
1355.418,-59.28
1355.433,-59.47
1355.448,-59.96
1355.463,-59.67
1355.478,-59.1
1355.493,-59.37
1355.508,-59.85
1355.523,-60.18
1355.538,-60.05
1355.553,-60.06
1355.568,-60.14
1355.583,-59.97
1355.598,-60.23
1355.613,-60.09
1355.628,-59.99
1355.643,-60.3
1355.658,-60.92
1355.673,-60.0
1355.688,-59.83
1355.703,-59.84
1355.718,-60.0
1355.733,-59.96
1355.748,-60.15
1355.763,-60.1
1355.778,-60.19
1355.793,-60.08
1355.808,-60.05
1355.823,-59.65
1355.838,-59.68
1355.853,-60.08
1355.868,-59.61
1355.883,-59.61
1355.898,-59.39
1355.913,-59.53
1355.928,-59.53
1355.943,-59.44
1355.958,-59.23
1355.973,-59.38
1355.988,-59.42
1356.003,-60.11
1356.018,-59.53
1356.033,-59.2
1356.048,-59.64
1356.063,-59.74
1356.078,-60.23
1356.093,-60.07
1356.108,-59.85
1356.123,-59.91
1356.138,-59.77
1356.153,-59.98
1356.168,-59.92
1356.183,-59.35
1356.198,-59.91
1356.213,-59.68
1356.228,-59.04
1356.243,-59.41
1356.258,-59.38
1356.273,-59.43
1356.288,-59.46
1356.303,-59.47
1356.318,-59.74
1356.333,-59.49
1356.348,-59.48
1356.363,-59.68
1356.378,-59.29
1356.393,-59.65
1356.408,-60.75
1356.423,-59.88
1356.438,-59.69
1356.453,-59.92
1356.468,-59.61
1356.483,-59.59
1356.498,-59.83
1356.513,-59.64
1356.528,-59.37
1356.543,-59.46
1356.558,-59.73
1356.573,-58.94
1356.588,-59.08
1356.603,-59.89
1356.618,-59.37
1356.633,-59.2
1356.648,-59.4
1356.663,-59.46
1356.678,-59.26
1356.693,-59.4
1356.708,-59.63
1356.723,-59.52
1356.738,-59.42
1356.753,-59.91
1356.768,-59.37
1356.783,-58.71
1356.798,-59.14
1356.813,-59.51
1356.828,-59.24
1356.843,-59.22
1356.858,-59.33
1356.873,-59.02
1356.888,-59.07
1356.903,-59.29
1356.918,-59.26
1356.933,-58.98
1356.948,-59.74
1356.963,-59.9
1356.978,-58.94
1356.993,-59.06
1357.008,-59.19
1357.023,-59.08
1357.038,-59.05
1357.053,-59.24
1357.068,-59.1
1357.083,-58.66
1357.098,-58.84
1357.113,-59.07
1357.128,-58.53
1357.143,-58.67
1357.158,-59.25
1357.173,-58.73
1357.188,-58.92
1357.203,-58.87
1357.219,-59.02
1357.233,-59.11
1357.248,-59.24
1357.263,-59.24
1357.278,-59.25
1357.293,-59.2
1357.308,-59.78
1357.323,-58.95
1357.339,-58.98
1357.354,-59.51
1357.369,-59.22
1357.383,-59.21
1357.398,-59.07
1357.413,-58.68
1357.428,-58.67
1357.443,-58.68
1357.458,-58.61
1357.474,-58.83
1357.489,-58.87
1357.504,-59.36
1357.518,-59.14
1357.533,-58.87
1357.548,-59.15
1357.563,-59.34
1357.578,-59.51
1357.594,-59.58
1357.609,-59.05
1357.624,-59.42
1357.639,-59.3
1357.654,-59.85
1357.668,-59.3
1357.683,-59.08
1357.698,-59.43
1357.714,-59.64
1357.729,-59.06
1357.744,-59.07
1357.759,-59.15
1357.774,-59.09
1357.789,-59.24
1357.803,-59.85
1357.818,-59.35
1357.833,-59.23
1357.849,-60.0
1357.864,-59.97
1357.879,-59.61
1357.894,-59.74
1357.909,-60.74
1357.924,-60.06
1357.939,-59.96
1357.953,-59.71
1357.969,-59.11
1357.984,-59.21
1357.999,-59.98
1358.014,-59.65
1358.029,-59.12
1358.044,-59.29
1358.059,-59.79
1358.074,-59.39
1358.089,-59.23
1358.104,-59.91
1358.119,-59.23
1358.134,-59.32
1358.149,-60.13
1358.164,-59.74
1358.179,-59.43
1358.194,-59.89
1358.209,-60.41
1358.224,-59.62
1358.239,-59.52
1358.254,-60.14
1358.269,-59.69
1358.284,-59.38
1358.299,-60.09
1358.314,-59.48
1358.329,-59.24
1358.344,-59.91
1358.359,-59.98
1358.374,-59.38
1358.389,-59.5
1358.404,-60.12
1358.419,-59.67
1358.434,-59.95
1358.449,-60.84
1358.464,-60.46
1358.479,-59.78
1358.494,-60.41
1358.509,-59.88
1358.524,-59.43
1358.539,-59.68
1358.554,-60.25
1358.569,-59.36
1358.584,-59.18
1358.599,-59.53
1358.614,-59.27
1358.629,-58.81
1358.644,-59.5
1358.659,-59.02
1358.674,-58.68
1358.689,-58.89
1358.704,-59.42
1358.719,-58.69
1358.734,-58.63
1358.749,-59.09
1358.764,-58.61
1358.779,-58.51
1358.794,-59.16
1358.809,-58.62
1358.824,-58.61
1358.839,-59.19
1358.854,-58.96
1358.869,-58.25
1358.884,-58.43
1358.899,-59.05
1358.914,-58.39
1358.929,-58.56
1358.944,-58.84
1358.959,-58.57
1358.974,-58.66
1358.989,-59.67
1359.004,-59.3
1359.019,-58.62
1359.034,-59.06
1359.049,-59.83
1359.064,-59.31
1359.079,-59.66
1359.094,-59.97
1359.109,-59.45
1359.124,-59.81
1359.139,-60.5
1359.154,-59.8
1359.169,-59.44
1359.184,-59.98
1359.199,-60.19
1359.214,-59.25
1359.229,-59.88
1359.244,-60.01
1359.259,-59.45
1359.274,-59.85
1359.289,-60.1
1359.304,-59.35
1359.319,-59.38
1359.334,-60.3
1359.349,-59.95
1359.364,-59.32
1359.379,-59.97
1359.394,-59.89
1359.409,-59.48
1359.424,-60.11
1359.439,-59.81
1359.454,-59.0
1359.469,-59.19
1359.484,-59.63
1359.499,-59.0
1359.514,-58.85
1359.529,-59.4
1359.544,-59.23
1359.559,-58.73
1359.574,-59.26
1359.589,-59.27
1359.604,-58.88
1359.619,-59.28
1359.634,-59.83
1359.649,-59.06
1359.664,-58.94
1359.679,-59.49
1359.694,-59.29
1359.709,-58.84
1359.724,-59.51
1359.739,-59.54
1359.754,-59.21
1359.769,-59.76
1359.784,-59.98
1359.799,-59.27
1359.814,-59.36
1359.829,-59.95
1359.844,-59.57
1359.859,-59.4
1359.874,-60.22
1359.889,-60.4
1359.904,-59.52
1359.919,-60.27
1359.934,-60.14
1359.949,-59.51
1359.964,-59.63
1359.979,-60.7
1359.994,-59.88
1360.009,-59.82
1360.024,-60.96
1360.039,-60.59
1360.054,-60.0
1360.069,-60.43
1360.084,-59.78
1360.099,-59.58
1360.114,-59.7
1360.129,-60.25
1360.144,-59.52
1360.159,-59.39
1360.174,-60.05
1360.189,-59.45
1360.204,-59.17
1360.219,-60.12
1360.234,-59.52
1360.249,-59.34
1360.264,-59.98
1360.279,-60.1
1360.294,-59.24
1360.309,-59.28
1360.324,-59.37
1360.339,-58.76
1360.354,-58.65
1360.369,-59.45
1360.384,-58.85
1360.399,-58.7
1360.414,-59.1
1360.429,-59.03
1360.444,-58.69
1360.459,-58.84
1360.474,-59.01
1360.489,-58.52
1360.504,-58.8
1360.519,-59.36
1360.534,-58.67
1360.549,-58.84
1360.564,-59.48
1360.579,-58.93
1360.594,-58.88
1360.609,-59.34
1360.624,-59.23
1360.639,-58.59
1360.654,-59.06
1360.669,-59.33
1360.684,-58.89
1360.699,-59.27
1360.714,-59.97
1360.729,-59.21
1360.744,-59.0
1360.759,-59.56
1360.774,-59.06
1360.789,-58.99
1360.804,-59.58
1360.819,-59.56
1360.834,-59.16
1360.849,-59.2
1360.864,-59.62
1360.879,-58.98
1360.894,-59.37
1360.909,-59.56
1360.924,-59.07
1360.939,-58.81
1360.954,-59.55
1360.969,-59.51
1360.984,-58.74
1360.999,-59.28
1361.014,-59.29
1361.029,-58.6
1361.044,-59.09
1361.059,-59.08
1361.074,-58.69
1361.089,-58.8
1361.104,-59.15
1361.119,-59.23
1361.134,-58.67
1361.149,-58.86
1361.164,-58.82
1361.179,-58.57
1361.194,-59.35
1361.209,-59.3
1361.224,-58.6
1361.239,-58.75
1361.254,-59.25
1361.269,-58.83
1361.284,-58.38
1361.299,-58.49
1361.314,-58.65
1361.329,-58.83
1361.344,-59.45
1361.359,-59.4
1361.374,-58.67
1361.389,-59.12
1361.404,-59.6
1361.419,-59.31
1361.434,-59.44
1361.449,-59.27
1361.464,-59.39
1361.479,-59.63
1361.494,-60.1
1361.509,-59.62
1361.524,-59.16
1361.539,-59.83
1361.554,-59.84
1361.569,-59.66
1361.584,-59.88
1361.599,-59.7
1361.614,-59.52
1361.629,-60.13
1361.644,-60.42
1361.659,-59.95
1361.674,-59.92
1361.689,-60.67
1361.704,-60.23
1361.719,-60.21
1361.734,-60.3
1361.749,-60.43
1361.764,-59.98
1361.779,-60.93
1361.794,-60.74
1361.809,-59.66
1361.824,-59.98
1361.839,-59.69
1361.854,-59.55
1361.869,-59.38
1361.884,-59.95
1361.899,-59.19
1361.914,-59.15
1361.929,-60.04
1361.944,-59.96
1361.959,-59.15
1361.974,-59.79
1361.989,-60.1
1362.004,-59.56
1362.019,-59.65
1362.034,-60.02
1362.049,-59.29
1362.064,-59.35
1362.079,-60.22
1362.094,-59.76
1362.109,-59.78
1362.124,-59.76
1362.139,-59.6
1362.154,-59.4
1362.169,-60.37
1362.184,-60.32
1362.199,-59.39
1362.214,-59.72
1362.229,-60.32
1362.244,-60.13
1362.259,-60.3
1362.274,-60.35
1362.289,-60.21
1362.304,-60.79
1362.319,-61.41
1362.334,-60.77
1362.349,-60.13
1362.364,-60.81
1362.379,-60.9
1362.394,-60.79
1362.409,-60.81
1362.424,-60.66
1362.439,-59.93
1362.454,-60.59
1362.469,-60.77
1362.484,-60.04
1362.499,-59.81
1362.514,-59.73
1362.529,-59.78
1362.544,-59.55
1362.559,-59.65
1362.574,-59.3
1362.589,-59.06
1362.604,-59.94
1362.619,-60.01
1362.634,-59.24
1362.649,-59.38
1362.664,-59.29
1362.679,-59.28
1362.694,-59.27
1362.709,-59.36
1362.724,-58.8
1362.739,-58.74
1362.754,-59.18
1362.769,-59.04
1362.784,-58.48
1362.799,-58.58
1362.814,-58.73
1362.829,-58.65
1362.844,-59.25
1362.859,-59.19
1362.874,-58.79
1362.889,-58.79
1362.904,-59.31
1362.919,-59.22
1362.934,-59.06
1362.949,-58.92
1362.964,-59.0
1362.979,-58.71
1362.994,-59.13
1363.009,-58.9
1363.024,-58.48
1363.039,-58.69
1363.054,-59.04
1363.069,-59.21
1363.084,-59.05
1363.099,-59.25
1363.114,-58.69
1363.129,-58.76
1363.144,-59.53
1363.159,-59.59
1363.174,-58.77
1363.189,-58.81
1363.204,-58.97
1363.219,-58.72
1363.234,-58.91
1363.249,-58.94
1363.264,-58.27
1363.279,-58.32
1363.294,-59.03
1363.309,-58.44
1363.324,-58.07
1363.339,-58.31
1363.354,-58.3
1363.369,-58.04
1363.384,-58.5
1363.399,-58.14
1363.414,-57.82
1363.429,-58.32
1363.444,-58.38
1363.459,-57.91
1363.474,-58.32
1363.489,-58.45
1363.504,-58.16
1363.519,-58.73
1363.534,-59.17
1363.549,-58.71
1363.564,-58.58
1363.579,-59.11
1363.594,-59.21
1363.609,-58.77
1363.624,-58.87
1363.639,-58.86
1363.654,-58.57
1363.669,-59.0
1363.684,-59.54
1363.699,-58.69
1363.714,-58.61
1363.729,-59.47
1363.744,-59.07
1363.759,-58.89
1363.774,-59.26
1363.789,-59.32
1363.804,-59.24
1363.819,-59.96
1363.834,-59.8
1363.849,-59.23
1363.864,-59.63
1363.879,-59.77
1363.894,-59.46
1363.909,-59.45
1363.924,-59.67
1363.939,-58.96
1363.954,-59.05
1363.969,-59.62
1363.984,-59.33
1363.999,-58.85
1364.014,-59.14
1364.029,-59.18
1364.044,-58.95
1364.059,-59.19
1364.074,-59.04
1364.089,-58.67
1364.104,-58.68
1364.119,-59.2
1364.134,-58.99
1364.149,-58.9
1364.164,-58.7
1364.179,-58.79
1364.194,-59.0
1364.209,-59.32
1364.224,-59.29
1364.239,-58.72
1364.254,-59.02
1364.269,-59.14
1364.284,-59.56
1364.299,-59.15
1364.314,-59.09
1364.329,-59.02
1364.344,-59.52
1364.359,-59.98
1364.374,-59.59
1364.389,-59.05
1364.404,-59.82
1364.419,-59.58
1364.434,-59.52
1364.449,-59.75
1364.464,-59.85
1364.479,-58.91
1364.494,-59.26
1364.509,-59.65
1364.524,-59.08
1364.539,-58.82
1364.554,-58.93
1364.569,-59.09
1364.584,-59.17
1364.599,-59.12
1364.614,-58.65
1364.629,-58.55
1364.644,-59.03
1364.659,-59.13
1364.674,-59.33
1364.689,-59.12
1364.704,-59.12
1364.719,-59.45
1364.734,-59.18
1364.749,-59.41
1364.764,-59.07
1364.779,-58.9
1364.794,-58.84
1364.809,-58.75
1364.824,-58.66
1364.839,-58.71
1364.854,-58.5
1364.869,-58.22
1364.884,-58.65
1364.899,-58.79
1364.914,-58.65
1364.929,-58.68
1364.944,-58.88
1364.959,-58.83
1364.974,-58.85
1364.989,-59.09
1365.004,-59.01
1365.019,-58.89
1365.034,-58.92
1365.049,-59.03
1365.064,-58.87
1365.079,-58.96
1365.094,-58.66
1365.109,-58.61
1365.124,-58.67
1365.139,-58.85
1365.154,-58.62
1365.169,-58.8
1365.184,-58.82
1365.199,-58.59
1365.214,-58.69
1365.229,-58.94
1365.245,-58.97
1365.259,-58.63
1365.274,-58.62
1365.289,-58.35
1365.304,-58.4
1365.319,-58.66
1365.334,-58.87
1365.349,-58.47
1365.365,-58.62
1365.38,-58.6
1365.395,-59.05
1365.409,-58.88
1365.424,-58.87
1365.439,-58.69
1365.454,-58.68
1365.469,-58.81
1365.484,-59.11
1365.5,-59.04
1365.515,-58.66
1365.53,-58.81
1365.544,-59.16
1365.559,-59.32
1365.574,-59.23
1365.589,-58.95
1365.604,-59.18
1365.62,-59.44
1365.635,-59.96
1365.65,-59.5
1365.665,-59.23
1365.68,-58.88
1365.694,-58.92
1365.709,-59.03
1365.724,-58.86
1365.74,-58.8
1365.755,-58.51
1365.77,-58.65
1365.785,-59.04
1365.8,-59.12
1365.815,-59.13
1365.83,-59.22
1365.844,-59.39
1365.859,-59.49
1365.875,-59.99
1365.89,-59.62
1365.905,-59.36
1365.92,-59.31
1365.935,-59.44
1365.95,-59.34
1365.965,-59.38
1365.979,-59.26
1365.995,-58.75
1366.01,-58.9
1366.025,-59.28
1366.04,-59.43
1366.055,-59.26
1366.07,-58.94
1366.085,-59.17
1366.1,-59.26
1366.115,-59.59
1366.13,-59.51
1366.145,-59.4
1366.16,-59.2
1366.175,-59.09
1366.19,-59.55
1366.205,-59.46
1366.22,-59.68
1366.235,-59.25
1366.25,-59.04
1366.265,-59.15
1366.28,-59.47
1366.295,-59.51
1366.31,-59.04
1366.325,-59.17
1366.34,-59.11
1366.355,-59.48
1366.37,-59.18
1366.385,-59.13
1366.4,-58.9
1366.415,-58.65
1366.43,-59.09
1366.445,-58.96
1366.46,-59.14
1366.475,-59.09
1366.49,-59.07
1366.505,-59.09
1366.52,-59.64
1366.535,-59.63
1366.55,-59.04
1366.565,-59.17
1366.58,-59.14
1366.595,-59.35
1366.61,-59.35
1366.625,-59.4
1366.64,-58.74
1366.655,-58.8
1366.67,-59.24
1366.685,-59.24
1366.7,-59.38
1366.715,-59.19
1366.73,-59.32
1366.745,-59.33
1366.76,-59.73
1366.775,-59.84
1366.79,-59.07
1366.805,-59.32
1366.82,-59.39
1366.835,-59.38
1366.85,-59.21
1366.865,-59.08
1366.88,-58.64
1366.895,-58.77
1366.91,-59.17
1366.925,-58.85
1366.94,-58.94
1366.955,-58.66
1366.97,-58.66
1366.985,-58.72
1367.0,-59.27
1367.015,-59.22
1367.03,-59.01
1367.045,-59.32
1367.06,-59.27
1367.075,-59.83
1367.09,-59.63
1367.105,-59.48
1367.12,-59.28
1367.135,-59.47
1367.15,-59.27
1367.165,-59.28
1367.18,-59.6
1367.195,-58.77
1367.21,-59.28
1367.225,-59.04
1367.24,-59.12
1367.255,-59.35
1367.27,-59.33
1367.285,-59.54
1367.3,-59.28
1367.315,-59.61
1367.33,-59.75
1367.345,-59.66
1367.36,-59.42
1367.375,-59.4
1367.39,-59.63
1367.405,-59.61
1367.42,-60.1
1367.435,-59.71
1367.45,-59.8
1367.465,-59.68
1367.48,-59.67
1367.495,-59.68
1367.51,-59.63
1367.525,-59.76
1367.54,-59.35
1367.555,-60.04
1367.57,-60.11
1367.585,-60.03
1367.6,-60.03
1367.615,-59.96
1367.63,-59.91
1367.645,-60.5
1367.66,-60.87
1367.675,-60.11
1367.69,-60.13
1367.705,-59.76
1367.72,-59.94
1367.735,-59.87
1367.75,-60.33
1367.765,-59.67
1367.78,-59.39
1367.795,-60.24
1367.81,-60.14
1367.825,-60.2
1367.84,-59.81
1367.855,-59.64
1367.87,-59.56
1367.885,-59.93
1367.9,-60.23
1367.915,-60.01
1367.93,-60.07
1367.945,-59.8
1367.96,-59.7
1367.975,-59.91
1367.99,-60.22
1368.005,-59.51
1368.02,-59.35
1368.035,-59.34
1368.05,-59.33
1368.065,-59.25
1368.08,-59.46
1368.095,-59.23
1368.11,-59.11
1368.125,-59.54
1368.14,-59.54
1368.155,-59.46
1368.17,-59.49
1368.185,-59.39
1368.2,-59.58
1368.215,-59.41
1368.23,-59.74
1368.245,-59.36
1368.26,-59.24
1368.275,-59.65
1368.29,-58.91
1368.305,-58.99
1368.32,-59.54
1368.335,-58.92
1368.35,-58.76
1368.365,-58.95
1368.38,-59.2
1368.395,-58.68
1368.41,-59.43
1368.425,-59.23
1368.44,-58.73
1368.455,-59.03
1368.47,-59.13
1368.485,-58.85
1368.5,-59.36
1368.515,-59.94
1368.53,-59.05
1368.545,-59.22
1368.56,-59.71
1368.575,-59.26
1368.59,-59.09
1368.605,-59.45
1368.62,-58.82
1368.635,-58.69
1368.65,-58.85
1368.665,-58.44
1368.68,-58.41
1368.695,-58.78
1368.71,-59.25
1368.725,-58.73
1368.74,-59.48
1368.755,-59.09
1368.77,-59.01
1368.785,-59.52
1368.8,-59.83
1368.815,-59.14
1368.83,-59.01
1368.845,-59.51
1368.86,-59.06
1368.875,-59.26
1368.89,-59.84
1368.905,-59.2
1368.92,-58.75
1368.935,-59.34
1368.95,-59.43
1368.965,-59.32
1368.98,-60.11
1368.995,-59.43
1369.01,-59.38
1369.025,-59.81
1369.04,-60.37
1369.055,-59.44
1369.07,-59.63
1369.085,-59.75
1369.1,-59.18
1369.115,-59.57
1369.13,-60.02
1369.145,-59.27
1369.16,-59.01
1369.175,-59.51
1369.19,-59.61
1369.205,-59.26
1369.22,-60.03
1369.235,-59.32
1369.25,-58.98
1369.265,-59.29
1369.28,-59.42
1369.295,-59.55
1369.31,-59.59
1369.325,-59.56
1369.34,-59.27
1369.355,-59.64
1369.37,-60.25
1369.385,-59.35
1369.4,-59.64
1369.415,-59.52
1369.43,-59.46
1369.445,-59.33
1369.46,-59.89
1369.475,-59.43
1369.49,-59.23
1369.505,-58.88
1369.52,-58.8
1369.535,-58.54
1369.55,-58.88
1369.565,-58.6
1369.58,-58.25
1369.595,-58.42
1369.61,-58.64
1369.625,-58.67
1369.64,-58.64
1369.655,-58.82
1369.67,-58.5
1369.685,-58.71
1369.7,-59.17
1369.715,-58.61
1369.73,-58.58
1369.745,-58.4
1369.76,-58.57
1369.775,-58.31
1369.79,-58.7
1369.805,-58.32
1369.82,-58.14
1369.835,-58.4
1369.85,-58.65
1369.865,-58.68
1369.88,-58.93
1369.895,-58.77
1369.91,-58.67
1369.925,-58.79
1369.94,-59.17
1369.955,-58.93
1369.97,-58.94
1369.985,-58.71
1370.0,-58.67
