wavelength_axis,light_level
1250.0,-61.71
1250.015,-62.0
1250.03,-62.41
1250.045,-62.55
1250.06,-61.51
1250.075,-61.89
1250.09,-61.71
1250.105,-61.19
1250.12,-61.66
1250.135,-61.88
1250.15,-61.69
1250.165,-61.29
1250.18,-61.28
1250.195,-61.41
1250.21,-62.0
1250.225,-60.87
1250.24,-60.59
1250.255,-60.74
1250.27,-61.33
1250.285,-61.67
1250.3,-61.7
1250.315,-61.56
1250.33,-60.99
1250.345,-61.18
1250.36,-61.67
1250.375,-61.81
1250.39,-61.2
1250.405,-60.75
1250.42,-60.67
1250.435,-61.12
1250.45,-61.39
1250.465,-61.56
1250.48,-60.96
1250.495,-60.22
1250.51,-60.3
1250.525,-60.85
1250.54,-61.69
1250.555,-61.82
1250.57,-60.87
1250.585,-60.7
1250.6,-61.23
1250.615,-61.6
1250.63,-61.7
1250.645,-60.67
1250.66,-60.26
1250.675,-60.28
1250.69,-60.51
1250.705,-61.31
1250.72,-61.07
1250.735,-60.73
1250.75,-60.82
1250.765,-61.88
1250.78,-62.39
1250.795,-62.42
1250.81,-61.39
1250.825,-61.01
1250.84,-61.29
1250.855,-61.67
1250.87,-61.99
1250.885,-61.58
1250.9,-61.59
1250.915,-61.27
1250.93,-61.38
1250.945,-62.09
1250.96,-61.38
1250.975,-60.64
1250.99,-60.33
1251.005,-60.71
1251.02,-61.73
1251.035,-62.34
1251.05,-61.24
1251.065,-61.54
1251.08,-61.23
1251.095,-61.7
1251.11,-62.68
1251.125,-61.8
1251.14,-60.77
1251.155,-60.36
1251.17,-60.59
1251.185,-61.59
1251.2,-62.85
1251.215,-61.64
1251.23,-61.21
1251.245,-61.44
1251.26,-61.73
1251.275,-61.85
1251.29,-61.67
1251.305,-61.07
1251.32,-60.6
1251.335,-60.77
1251.35,-61.87
1251.365,-62.44
1251.38,-61.46
1251.395,-61.44
1251.41,-61.08
1251.425,-61.71
1251.44,-62.26
1251.455,-62.1
1251.47,-60.97
1251.485,-60.89
1251.5,-61.4
1251.515,-62.25
1251.53,-62.81
1251.545,-61.74
1251.56,-60.98
1251.575,-60.77
1251.59,-61.69
1251.605,-61.98
1251.62,-61.53
1251.635,-60.61
1251.65,-60.84
1251.665,-61.56
1251.68,-61.79
1251.695,-62.0
1251.71,-61.12
1251.725,-60.48
1251.74,-61.16
1251.755,-62.11
1251.77,-61.56
1251.785,-60.96
1251.8,-60.66
1251.815,-60.84
1251.83,-61.41
1251.845,-61.58
1251.86,-61.7
1251.875,-61.09
1251.89,-60.65
1251.905,-61.28
1251.92,-62.06
1251.935,-62.45
1251.95,-61.23
1251.965,-61.13
1251.98,-61.25
1251.995,-62.41
1252.01,-62.34
1252.025,-61.29
1252.04,-60.46
1252.055,-60.71
1252.07,-61.1
1252.085,-60.88
1252.1,-60.99
1252.115,-60.26
1252.13,-60.55
1252.145,-60.69
1252.16,-61.95
1252.175,-62.01
1252.19,-61.11
1252.205,-60.04
1252.22,-60.45
1252.235,-61.12
1252.25,-60.7
1252.265,-60.6
1252.28,-60.07
1252.295,-60.6
1252.31,-60.77
1252.325,-61.47
1252.34,-61.51
1252.355,-61.0
1252.37,-60.12
1252.385,-60.81
1252.4,-60.92
1252.415,-60.84
1252.43,-60.78
1252.445,-60.22
1252.46,-60.84
1252.475,-60.98
1252.49,-61.49
1252.505,-60.95
1252.52,-60.8
1252.535,-60.62
1252.55,-61.33
1252.565,-61.67
1252.58,-61.42
1252.595,-61.59
1252.61,-60.84
1252.625,-61.73
1252.64,-61.85
1252.655,-62.54
1252.67,-61.33
1252.685,-61.42
1252.7,-62.29
1252.715,-63.38
1252.73,-63.79
1252.745,-62.28
1252.76,-61.82
1252.775,-61.53
1252.79,-62.61
1252.805,-61.79
1252.82,-61.81
1252.835,-60.93
1252.85,-61.33
1252.865,-61.34
1252.88,-62.16
1252.895,-62.31
1252.91,-61.38
1252.925,-61.39
1252.94,-61.08
1252.955,-61.9
1252.97,-61.54
1252.985,-61.62
1253.0,-60.76
1253.015,-61.27
1253.03,-61.93
1253.045,-61.75
1253.06,-61.83
1253.075,-61.2
1253.09,-62.06
1253.105,-61.8
1253.12,-62.47
1253.135,-61.91
1253.15,-62.11
1253.165,-61.28
1253.18,-61.75
1253.195,-62.38
1253.21,-62.56
1253.225,-61.6
1253.24,-61.17
1253.255,-62.27
1253.271,-62.45
1253.285,-62.72
1253.3,-61.75
1253.315,-61.63
1253.33,-61.77
1253.345,-62.73
1253.36,-62.35
1253.375,-62.51
1253.391,-61.26
1253.406,-61.15
1253.421,-62.19
1253.435,-62.01
1253.45,-62.26
1253.465,-61.37
1253.48,-61.57
1253.495,-61.95
1253.51,-62.44
1253.526,-62.37
1253.541,-61.87
1253.556,-62.01
1253.571,-61.73
1253.585,-62.39
1253.6,-61.84
1253.615,-62.34
1253.63,-61.33
1253.646,-62.02
1253.661,-61.65
1253.676,-62.57
1253.691,-62.36
1253.706,-61.48
1253.72,-61.6
1253.735,-62.05
1253.75,-62.39
1253.766,-61.73
1253.781,-62.4
1253.796,-61.48
1253.811,-62.57
1253.826,-62.35
1253.841,-62.38
1253.856,-62.02
1253.87,-62.18
1253.885,-61.86
1253.901,-62.55
1253.916,-62.53
1253.931,-61.85
1253.946,-62.37
1253.961,-61.97
1253.976,-62.67
1253.991,-62.71
1254.005,-62.87
1254.021,-62.15
1254.036,-62.0
1254.051,-62.97
1254.066,-62.42
1254.081,-62.53
1254.096,-61.75
1254.111,-62.57
1254.126,-62.28
1254.141,-62.91
1254.156,-62.64
1254.171,-62.71
1254.186,-61.94
1254.201,-61.98
1254.216,-62.42
1254.231,-62.52
1254.246,-62.12
1254.261,-61.55
1254.276,-62.23
1254.291,-62.04
1254.306,-62.82
1254.321,-62.47
1254.336,-61.93
1254.351,-61.63
1254.366,-62.41
1254.381,-62.58
1254.396,-62.68
1254.411,-62.55
1254.426,-61.84
1254.441,-62.96
1254.456,-62.63
1254.471,-63.3
1254.486,-62.54
1254.501,-62.23
1254.516,-62.66
1254.531,-63.77
1254.546,-63.76
1254.561,-62.58
1254.576,-62.44
1254.591,-62.3
1254.606,-63.43
1254.621,-62.86
1254.636,-62.72
1254.651,-61.92
1254.666,-62.38
1254.681,-62.32
1254.696,-63.75
1254.711,-63.39
1254.726,-62.04
1254.741,-61.9
1254.756,-61.92
1254.771,-63.28
1254.786,-62.13
1254.801,-62.23
1254.816,-61.3
1254.831,-61.93
1254.846,-62.45
1254.861,-62.76
1254.876,-62.01
1254.891,-61.13
1254.906,-60.98
1254.921,-61.21
1254.936,-61.68
1254.951,-61.05
1254.966,-60.83
1254.981,-60.21
1254.996,-60.41
1255.011,-60.88
1255.026,-60.83
1255.041,-60.4
1255.056,-60.04
1255.071,-60.74
1255.086,-60.88
1255.101,-61.71
1255.116,-60.78
1255.131,-60.76
1255.146,-60.95
1255.161,-61.47
1255.176,-61.55
1255.191,-61.32
1255.206,-60.52
1255.221,-60.34
1255.236,-60.97
1255.251,-61.25
1255.266,-61.43
1255.281,-60.41
1255.296,-60.34
1255.311,-60.65
1255.326,-61.4
1255.341,-61.49
1255.356,-60.77
1255.371,-60.3
1255.386,-60.22
1255.401,-61.28
1255.416,-61.45
1255.431,-61.16
1255.446,-60.31
1255.461,-60.53
1255.476,-60.83
1255.491,-61.97
1255.506,-61.92
1255.521,-60.87
1255.536,-60.1
1255.551,-59.98
1255.566,-60.93
1255.581,-60.64
1255.596,-60.41
1255.611,-59.66
1255.626,-59.75
1255.641,-60.59
1255.656,-60.65
1255.671,-60.41
1255.686,-60.02
1255.701,-59.47
1255.716,-59.93
1255.731,-61.03
1255.746,-60.44
1255.761,-60.32
1255.776,-60.19
1255.791,-60.43
1255.806,-61.13
1255.821,-61.32
1255.836,-60.66
1255.851,-60.15
1255.866,-60.68
1255.881,-60.95
1255.896,-61.3
1255.911,-60.61
1255.926,-60.49
1255.941,-60.6
1255.956,-60.74
1255.971,-60.81
1255.986,-60.67
1256.001,-60.7
1256.016,-60.94
1256.031,-61.48
1256.046,-61.87
1256.061,-61.69
1256.076,-61.42
1256.091,-61.4
1256.106,-61.53
1256.121,-61.53
1256.136,-61.45
1256.151,-60.82
1256.166,-60.24
1256.181,-60.66
1256.196,-60.74
1256.211,-61.35
1256.226,-61.3
1256.241,-60.86
1256.256,-61.47
1256.271,-61.71
1256.286,-61.81
1256.301,-61.9
1256.316,-62.13
1256.331,-61.4
1256.346,-61.95
1256.361,-62.01
1256.376,-61.97
1256.391,-61.83
1256.406,-61.34
1256.421,-61.54
1256.436,-61.47
1256.451,-61.75
1256.466,-61.56
1256.481,-61.88
1256.496,-61.03
1256.511,-60.93
1256.526,-61.02
1256.541,-61.4
1256.556,-62.48
1256.571,-61.98
1256.586,-61.74
1256.601,-61.64
1256.616,-62.43
1256.631,-62.53
1256.646,-62.12
1256.661,-62.17
1256.676,-61.86
1256.691,-62.05
1256.706,-62.62
1256.721,-62.64
1256.736,-62.21
1256.751,-62.07
1256.766,-62.23
1256.781,-62.26
1256.796,-62.66
1256.811,-62.35
1256.826,-61.78
1256.841,-61.83
1256.856,-62.11
1256.871,-61.93
1256.886,-61.87
1256.901,-61.6
1256.916,-61.76
1256.931,-61.76
1256.946,-62.0
1256.961,-62.29
1256.976,-62.77
1256.991,-62.84
1257.006,-62.7
1257.021,-61.95
1257.036,-62.08
1257.051,-62.37
1257.066,-62.24
1257.081,-61.72
1257.096,-61.69
1257.111,-61.46
1257.126,-61.49
1257.141,-62.06
1257.156,-61.88
1257.171,-62.05
1257.186,-62.08
1257.201,-62.29
1257.216,-62.63
1257.231,-62.52
1257.246,-62.48
1257.261,-61.87
1257.276,-61.9
1257.291,-62.2
1257.306,-63.2
1257.321,-61.7
1257.336,-62.08
1257.351,-62.16
1257.366,-63.04
1257.381,-63.19
1257.396,-63.19
1257.411,-63.03
1257.426,-61.94
1257.441,-63.05
1257.456,-63.18
1257.471,-63.47
1257.486,-62.06
1257.501,-61.92
1257.516,-62.2
1257.531,-62.32
1257.546,-62.75
1257.561,-61.81
1257.576,-61.34
1257.591,-61.89
1257.606,-62.71
1257.621,-62.63
1257.636,-62.35
1257.651,-61.89
1257.666,-61.7
1257.681,-63.0
1257.696,-63.0
1257.711,-62.33
1257.726,-61.86
1257.741,-61.26
1257.756,-61.94
1257.771,-61.96
1257.786,-61.42
1257.801,-61.07
1257.816,-60.74
1257.831,-61.64
1257.846,-62.27
1257.861,-62.37
1257.876,-62.25
1257.891,-62.38
1257.906,-62.91
1257.921,-63.55
1257.936,-63.41
1257.951,-62.83
1257.966,-62.25
1257.981,-61.98
1257.996,-62.69
1258.011,-62.19
1258.026,-62.63
1258.041,-62.06
1258.056,-62.04
1258.071,-62.23
1258.086,-63.31
1258.101,-63.34
1258.116,-62.32
1258.131,-63.2
1258.146,-62.72
1258.161,-63.34
1258.176,-63.2
1258.191,-62.28
1258.206,-61.84
1258.221,-61.95
1258.236,-62.29
1258.251,-61.93
1258.266,-62.29
1258.281,-61.49
1258.296,-62.0
1258.311,-61.44
1258.326,-62.24
1258.341,-61.93
1258.356,-61.19
1258.371,-61.55
1258.386,-61.52
1258.401,-62.09
1258.416,-61.58
1258.431,-62.09
1258.446,-61.24
1258.461,-61.77
1258.476,-61.87
1258.491,-61.85
1258.506,-61.63
1258.521,-61.19
1258.536,-61.99
1258.551,-61.5
1258.566,-61.83
1258.581,-61.8
1258.596,-61.43
1258.611,-61.69
1258.626,-61.94
1258.641,-62.26
1258.656,-61.99
1258.671,-62.63
1258.686,-61.75
1258.701,-62.42
1258.716,-62.48
1258.731,-62.42
1258.746,-62.04
1258.761,-61.45
1258.776,-62.13
1258.791,-61.57
1258.806,-61.72
1258.821,-61.25
1258.836,-61.17
1258.851,-60.93
1258.866,-61.55
1258.881,-61.58
1258.896,-60.79
1258.911,-61.0
1258.926,-60.86
1258.941,-61.65
1258.956,-61.35
1258.971,-61.46
1258.986,-60.82
1259.001,-60.63
1259.016,-61.66
1259.031,-61.38
1259.046,-61.41
1259.061,-60.78
1259.076,-61.55
1259.091,-60.94
1259.106,-61.47
1259.121,-61.31
1259.136,-60.91
1259.151,-61.36
1259.166,-61.54
1259.181,-62.0
1259.196,-61.62
1259.211,-62.12
1259.226,-61.34
1259.241,-61.76
1259.256,-62.54
1259.271,-62.2
1259.286,-62.16
1259.301,-61.37
1259.316,-62.3
1259.331,-61.82
1259.346,-62.2
1259.361,-62.21
1259.376,-61.6
1259.391,-61.74
1259.406,-61.79
1259.421,-61.83
1259.436,-61.62
1259.451,-62.42
1259.466,-61.55
1259.481,-61.99
1259.496,-61.85
1259.511,-62.34
1259.526,-62.11
1259.541,-61.83
1259.556,-62.34
1259.571,-61.69
1259.586,-61.88
1259.601,-61.69
1259.616,-61.91
1259.631,-61.23
1259.646,-61.52
1259.661,-61.33
1259.676,-60.82
1259.691,-61.76
1259.706,-61.38
1259.721,-61.52
1259.736,-61.08
1259.751,-61.7
1259.766,-61.62
1259.781,-61.31
1259.796,-61.88
1259.811,-61.36
1259.826,-61.73
1259.841,-61.42
1259.856,-62.08
1259.871,-60.96
1259.886,-60.97
1259.901,-61.14
1259.916,-61.11
1259.931,-61.42
1259.946,-61.39
1259.961,-61.15
1259.976,-61.03
1259.991,-62.27
1260.006,-62.61
1260.021,-62.1
1260.036,-61.86
1260.051,-61.98
1260.066,-62.43
1260.081,-62.25
1260.096,-62.38
1260.111,-61.43
1260.126,-61.71
1260.141,-61.68
1260.156,-61.82
1260.171,-61.09
1260.186,-60.89
1260.201,-60.8
1260.216,-60.97
1260.231,-61.97
1260.246,-61.96
1260.261,-61.42
1260.276,-61.01
1260.291,-61.65
1260.306,-62.05
1260.321,-61.87
1260.336,-61.71
1260.351,-61.33
1260.366,-61.47
1260.381,-61.7
1260.396,-61.67
1260.411,-60.62
1260.426,-60.53
1260.441,-60.45
1260.456,-60.58
1260.471,-61.22
1260.486,-61.38
1260.501,-61.08
1260.516,-60.9
1260.531,-61.52
1260.546,-61.49
1260.561,-61.72
1260.576,-61.63
1260.591,-61.69
1260.606,-61.72
1260.621,-61.54
1260.636,-61.97
1260.651,-60.96
1260.666,-60.97
1260.681,-61.6
1260.696,-61.44
1260.711,-61.16
1260.726,-60.34
1260.741,-60.48
1260.756,-60.4
1260.771,-61.25
1260.786,-60.76
1260.801,-60.81
1260.816,-60.58
1260.831,-60.85
1260.846,-61.9
1260.861,-61.48
1260.876,-61.48
1260.891,-61.12
1260.906,-61.63
1260.921,-62.73
1260.936,-62.99
1260.951,-61.89
1260.966,-61.98
1260.981,-62.63
1260.996,-61.78
1261.011,-61.87
1261.026,-61.31
1261.041,-61.25
1261.056,-60.99
1261.071,-61.19
1261.086,-61.3
1261.101,-60.68
1261.116,-60.73
1261.131,-60.77
1261.146,-61.4
1261.161,-61.44
1261.176,-60.89
1261.191,-60.65
1261.206,-60.78
1261.221,-61.46
1261.236,-61.35
1261.251,-61.54
1261.266,-60.89
1261.281,-61.09
1261.297,-61.0
1261.312,-61.36
1261.326,-61.24
1261.341,-60.78
1261.356,-60.9
1261.371,-60.82
1261.386,-61.15
1261.401,-60.94
1261.417,-60.64
1261.432,-60.76
1261.447,-61.18
1261.461,-61.57
1261.476,-61.01
1261.491,-59.89
1261.506,-59.79
1261.521,-60.17
1261.536,-60.75
1261.552,-60.66
1261.567,-60.12
1261.582,-59.95
1261.597,-60.19
1261.611,-61.25
1261.626,-61.69
1261.641,-60.73
1261.656,-60.59
1261.672,-61.29
1261.687,-61.5
1261.702,-61.83
1261.717,-61.11
1261.732,-61.11
1261.746,-61.34
1261.761,-61.77
1261.776,-61.95
1261.792,-61.63
1261.807,-60.96
1261.822,-61.06
1261.837,-61.62
1261.852,-61.56
1261.867,-61.52
1261.882,-61.17
1261.896,-61.52
1261.911,-62.24
1261.927,-61.77
1261.942,-61.48
1261.957,-60.87
1261.972,-60.73
1261.987,-60.67
1262.002,-61.53
1262.017,-60.81
1262.031,-60.5
1262.047,-60.23
1262.062,-60.89
1262.077,-61.68
1262.092,-60.67
1262.107,-60.73
1262.122,-60.66
1262.137,-61.23
1262.152,-61.77
1262.167,-61.56
1262.182,-61.46
1262.197,-61.16
1262.212,-62.02
1262.227,-61.71
1262.242,-62.26
1262.257,-60.68
1262.272,-60.92
1262.287,-60.89
1262.302,-61.56
1262.317,-61.81
1262.332,-60.84
1262.347,-60.86
1262.362,-60.43
1262.377,-61.62
1262.392,-61.24
1262.407,-61.01
1262.422,-60.98
1262.437,-60.96
1262.452,-61.9
1262.467,-61.86
1262.482,-61.78
1262.497,-61.84
1262.512,-62.54
1262.527,-62.62
1262.542,-62.68
1262.557,-62.39
1262.572,-61.67
1262.587,-61.62
1262.602,-62.12
1262.617,-62.12
1262.632,-60.78
1262.647,-60.84
1262.662,-60.85
1262.677,-60.86
1262.692,-61.12
1262.707,-60.24
1262.722,-60.01
1262.737,-60.05
1262.752,-60.7
1262.767,-60.99
1262.782,-60.56
1262.797,-60.35
1262.812,-60.41
1262.827,-61.27
1262.842,-61.04
1262.857,-60.92
1262.872,-59.92
1262.887,-60.07
1262.902,-60.85
1262.917,-60.75
1262.932,-60.94
1262.947,-60.06
1262.962,-60.25
1262.977,-60.45
1262.992,-61.09
1263.007,-60.44
1263.022,-60.2
1263.037,-60.05
1263.052,-60.67
1263.067,-61.2
1263.082,-60.38
1263.097,-60.52
1263.112,-60.32
1263.127,-60.72
1263.142,-61.15
1263.157,-60.41
1263.172,-60.03
1263.187,-59.82
1263.202,-60.65
1263.217,-60.97
1263.232,-61.53
1263.247,-60.67
1263.262,-60.66
1263.277,-60.98
1263.292,-61.47
1263.307,-61.37
1263.322,-60.41
1263.337,-60.43
1263.352,-61.01
1263.367,-62.22
1263.382,-61.79
1263.397,-61.38
1263.412,-60.87
1263.427,-61.06
1263.442,-62.28
1263.457,-61.45
1263.472,-60.43
1263.487,-60.02
1263.502,-60.43
1263.517,-60.96
1263.532,-60.91
1263.547,-60.4
1263.562,-59.98
1263.577,-60.26
1263.592,-61.68
1263.607,-61.09
1263.622,-60.64
1263.637,-60.31
1263.652,-60.25
1263.667,-61.54
1263.682,-61.85
1263.697,-61.51
1263.712,-61.13
1263.727,-61.59
1263.742,-61.85
1263.757,-62.01
1263.772,-61.73
1263.787,-61.29
1263.802,-61.29
1263.817,-61.6
1263.832,-61.7
1263.847,-61.76
1263.862,-61.22
1263.877,-61.29
1263.892,-61.54
1263.907,-61.5
1263.922,-60.74
1263.937,-60.43
1263.952,-60.34
1263.967,-60.79
1263.982,-61.33
1263.997,-61.42
1264.012,-61.12
1264.027,-60.83
1264.042,-62.02
1264.057,-62.56
1264.072,-62.32
1264.087,-61.9
1264.102,-61.6
1264.117,-63.18
1264.132,-64.43
1264.147,-63.51
1264.162,-63.38
1264.177,-62.89
1264.192,-63.52
1264.207,-64.2
1264.222,-63.22
1264.237,-61.6
1264.252,-61.15
1264.267,-61.75
1264.282,-62.02
1264.297,-61.79
1264.312,-60.89
1264.327,-60.83
1264.342,-61.32
1264.357,-61.64
1264.372,-61.05
1264.387,-60.92
1264.402,-60.9
1264.417,-61.31
1264.432,-62.21
1264.447,-62.02
1264.462,-61.68
1264.477,-61.74
1264.492,-62.71
1264.507,-62.65
1264.522,-62.47
1264.537,-62.18
1264.552,-61.72
1264.567,-62.66
1264.582,-63.36
1264.597,-62.81
1264.612,-62.35
1264.627,-61.87
1264.642,-62.37
1264.657,-63.88
1264.672,-62.98
1264.687,-61.64
1264.702,-61.2
1264.717,-61.46
1264.732,-61.99
1264.747,-62.08
1264.762,-61.74
1264.777,-61.24
1264.792,-61.22
1264.807,-62.38
1264.822,-62.25
1264.837,-61.71
1264.852,-61.24
1264.867,-61.66
1264.882,-62.58
1264.897,-63.9
1264.912,-62.25
1264.927,-62.07
1264.942,-62.42
1264.957,-63.25
1264.972,-63.49
1264.987,-62.51
1265.002,-61.51
1265.017,-61.18
1265.032,-62.74
1265.047,-62.42
1265.062,-61.48
1265.077,-61.05
1265.092,-61.05
1265.107,-62.36
1265.122,-61.65
1265.137,-60.68
1265.152,-60.22
1265.167,-60.4
1265.182,-61.16
1265.197,-61.15
1265.212,-60.97
1265.227,-60.36
1265.242,-61.14
1265.257,-61.77
1265.272,-61.66
1265.287,-60.98
1265.302,-60.62
1265.317,-61.01
1265.332,-62.14
1265.347,-62.87
1265.362,-61.62
1265.377,-61.48
1265.392,-61.56
1265.407,-62.2
1265.422,-62.67
1265.437,-61.74
1265.452,-61.14
1265.467,-61.06
1265.482,-61.9
1265.497,-61.87
1265.512,-61.67
1265.527,-60.81
1265.542,-60.78
1265.557,-61.62
1265.572,-61.42
1265.587,-61.14
1265.602,-60.1
1265.617,-60.56
1265.632,-61.35
1265.647,-61.49
1265.662,-61.04
1265.677,-60.62
1265.692,-61.09
1265.707,-61.85
1265.722,-62.91
1265.737,-61.93
1265.752,-61.76
1265.767,-61.92
1265.782,-63.01
1265.797,-64.36
1265.812,-62.69
1265.827,-62.33
1265.842,-63.01
1265.857,-64.06
1265.872,-64.38
1265.887,-62.68
1265.902,-61.89
1265.917,-61.75
1265.932,-63.09
1265.947,-62.66
1265.962,-61.86
1265.977,-61.09
1265.992,-61.39
1266.007,-62.31
1266.022,-63.07
1266.037,-61.86
1266.052,-61.15
1266.067,-61.33
1266.082,-62.16
1266.097,-62.46
1266.112,-61.91
1266.127,-61.47
1266.142,-61.91
1266.157,-63.2
1266.172,-64.46
1266.187,-62.79
1266.202,-62.4
1266.217,-62.31
1266.232,-62.91
1266.247,-63.35
1266.262,-62.54
1266.277,-61.87
1266.292,-62.56
1266.307,-63.35
1266.322,-64.27
1266.337,-63.02
1266.352,-62.16
1266.367,-62.21
1266.382,-63.85
1266.397,-63.67
1266.412,-62.61
1266.427,-61.88
1266.442,-62.04
1266.457,-62.93
1266.472,-63.16
1266.487,-62.2
1266.502,-61.38
1266.517,-61.82
1266.532,-62.95
1266.547,-63.47
1266.562,-63.09
1266.577,-62.34
1266.592,-62.26
1266.607,-63.76
1266.622,-64.42
1266.637,-63.2
1266.652,-63.0
1266.667,-63.0
1266.682,-64.79
1266.697,-65.19
1266.712,-64.92
1266.727,-63.22
1266.742,-63.37
1266.757,-66.5
1266.772,-67.02
1266.787,-65.22
1266.802,-63.36
1266.817,-63.79
1266.832,-65.41
1266.847,-66.05
1266.862,-64.18
1266.877,-62.99
1266.892,-64.13
1266.907,-64.03
1266.922,-66.51
1266.937,-65.2
1266.952,-64.3
1266.967,-64.07
1266.982,-64.66
1266.997,-67.4
1267.012,-64.8
1267.027,-63.27
1267.042,-63.38
1267.057,-64.47
1267.072,-67.86
1267.087,-64.67
1267.102,-64.59
1267.117,-63.55
1267.132,-64.98
1267.147,-66.49
1267.162,-64.18
1267.177,-62.6
1267.192,-62.25
1267.207,-63.89
1267.222,-63.8
1267.237,-63.01
1267.252,-61.91
1267.267,-61.74
1267.282,-63.81
1267.297,-63.53
1267.312,-64.01
1267.327,-62.5
1267.342,-62.36
1267.357,-63.49
1267.372,-64.16
1267.387,-63.82
1267.402,-62.41
1267.417,-62.77
1267.432,-64.01
1267.447,-65.94
1267.462,-64.41
1267.477,-63.23
1267.492,-64.0
1267.507,-66.04
1267.522,-68.06
1267.537,-65.73
1267.552,-64.79
1267.567,-64.26
1267.582,-64.11
1267.597,-67.43
1267.612,-65.22
1267.627,-64.13
1267.642,-64.65
1267.657,-64.63
1267.672,-66.78
1267.687,-64.26
1267.702,-63.63
1267.717,-62.66
1267.732,-63.66
1267.747,-65.4
1267.762,-63.1
1267.777,-61.97
1267.792,-61.71
1267.807,-63.01
1267.822,-62.7
1267.837,-61.96
1267.852,-61.22
1267.867,-61.32
1267.882,-62.56
1267.897,-62.04
1267.912,-62.0
1267.927,-61.19
1267.942,-61.39
1267.957,-61.9
1267.972,-61.88
1267.987,-62.18
1268.002,-61.0
1268.017,-61.4
1268.032,-62.28
1268.047,-62.28
1268.062,-61.97
1268.077,-61.18
1268.092,-61.79
1268.107,-61.77
1268.122,-61.78
1268.137,-61.32
1268.152,-60.41
1268.167,-61.0
1268.182,-61.57
1268.197,-62.57
1268.212,-61.6
1268.227,-60.75
1268.242,-61.52
1268.257,-62.45
1268.272,-63.87
1268.287,-62.49
1268.302,-61.92
1268.317,-62.03
1268.332,-62.46
1268.347,-64.31
1268.362,-62.59
1268.377,-62.64
1268.392,-62.57
1268.407,-63.65
1268.422,-64.7
1268.437,-62.81
1268.452,-62.07
1268.467,-62.61
1268.482,-63.99
1268.497,-64.24
1268.512,-62.68
1268.527,-61.88
1268.542,-61.29
1268.557,-62.06
1268.572,-62.14
1268.587,-62.33
1268.602,-61.47
1268.617,-61.35
1268.632,-62.7
1268.647,-62.45
1268.662,-62.35
1268.677,-61.38
1268.692,-61.37
1268.707,-62.02
1268.722,-62.69
1268.737,-61.72
1268.752,-60.8
1268.767,-60.93
1268.782,-61.85
1268.797,-62.1
1268.812,-61.58
1268.827,-60.94
1268.842,-61.5
1268.857,-62.29
1268.872,-62.43
1268.887,-61.62
1268.902,-61.45
1268.917,-62.07
1268.932,-62.97
1268.947,-63.84
1268.962,-62.42
1268.977,-62.53
1268.992,-63.56
1269.007,-64.75
1269.022,-65.43
1269.037,-63.65
1269.052,-63.31
1269.067,-64.18
1269.082,-65.74
1269.097,-66.47
1269.112,-64.5
1269.127,-65.0
1269.142,-67.43
1269.157,-72.96
1269.172,-74.32
1269.188,-68.65
1269.202,-65.75
1269.217,-68.93
1269.232,-210.0
1269.247,-210.0
1269.262,-68.51
1269.277,-66.93
1269.292,-67.62
1269.307,-78.57
1269.323,-70.83
1269.338,-68.66
1269.352,-65.79
1269.367,-67.73
1269.382,-74.45
1269.397,-68.66
1269.412,-65.65
1269.427,-64.2
1269.443,-66.58
1269.458,-69.78
1269.473,-65.63
1269.487,-64.0
1269.502,-63.04
1269.517,-65.62
1269.532,-67.25
1269.547,-67.18
1269.563,-66.04
1269.578,-64.78
1269.593,-67.14
1269.608,-67.42
1269.623,-67.61
1269.637,-64.84
1269.652,-63.95
1269.667,-66.04
1269.682,-66.66
1269.698,-66.53
1269.713,-64.27
1269.728,-63.66
1269.743,-66.21
1269.758,-65.86
1269.772,-66.32
1269.787,-63.32
1269.802,-64.02
1269.818,-64.88
1269.833,-65.13
1269.848,-65.25
1269.863,-63.29
1269.878,-64.19
1269.893,-63.98
1269.908,-65.74
1269.922,-64.24
1269.938,-63.42
1269.953,-63.17
1269.968,-63.51
1269.983,-65.03
1269.998,-63.25
1270.013,-63.02
1270.028,-63.1
1270.043,-64.3
1270.058,-65.14
1270.073,-64.33
1270.088,-63.71
1270.103,-63.17
1270.118,-64.34
1270.133,-64.43
1270.148,-62.77
1270.163,-62.51
1270.178,-61.77
1270.193,-62.48
1270.208,-62.3
1270.223,-61.54
1270.238,-61.69
1270.253,-61.21
1270.268,-62.61
1270.283,-61.93
1270.298,-61.68
1270.313,-61.49
1270.328,-61.45
1270.343,-62.36
1270.358,-61.92
1270.373,-61.48
1270.388,-60.46
1270.403,-60.86
1270.418,-61.5
1270.433,-61.29
1270.448,-61.12
1270.463,-60.23
1270.478,-60.6
1270.493,-61.19
1270.508,-61.3
1270.523,-60.62
1270.538,-60.12
1270.553,-60.92
1270.568,-61.03
1270.583,-60.89
1270.598,-60.51
1270.613,-60.16
1270.628,-61.15
1270.643,-61.12
1270.658,-61.64
1270.673,-60.61
1270.688,-60.41
1270.703,-61.04
1270.718,-61.19
1270.733,-61.32
1270.748,-60.27
1270.763,-60.69
1270.778,-61.09
1270.793,-62.59
1270.808,-61.97
1270.823,-60.9
1270.838,-61.7
1270.853,-62.19
1270.868,-63.48
1270.883,-62.48
1270.898,-61.85
1270.913,-62.19
1270.928,-62.67
1270.943,-64.02
1270.958,-62.17
1270.973,-62.16
1270.988,-62.72
1271.003,-63.43
1271.018,-63.86
1271.033,-62.59
1271.048,-61.76
1271.063,-62.16
1271.078,-62.96
1271.093,-63.23
1271.108,-62.26
1271.123,-61.71
1271.138,-61.57
1271.153,-62.81
1271.168,-62.59
1271.183,-62.29
1271.198,-62.04
1271.213,-62.19
1271.228,-63.38
1271.243,-62.53
1271.258,-62.02
1271.273,-61.02
1271.288,-61.26
1271.303,-62.51
1271.318,-61.6
1271.333,-61.17
1271.348,-60.43
1271.363,-60.91
1271.378,-61.39
1271.393,-61.31
1271.408,-60.82
1271.423,-60.47
1271.438,-61.17
1271.453,-61.12
1271.468,-61.24
1271.483,-61.1
1271.498,-60.65
1271.513,-61.41
1271.528,-61.39
1271.543,-61.0
1271.558,-60.5
1271.573,-60.47
1271.588,-61.41
1271.603,-61.41
1271.618,-61.56
1271.633,-60.45
1271.648,-60.86
1271.663,-61.22
1271.678,-61.09
1271.693,-60.8
1271.708,-60.02
1271.723,-60.16
1271.738,-60.72
1271.753,-60.86
1271.768,-60.77
1271.783,-60.33
1271.798,-59.9
1271.813,-60.37
1271.828,-60.56
1271.843,-60.08
1271.858,-59.68
1271.873,-59.7
1271.888,-59.77
1271.903,-59.95
1271.918,-59.31
1271.933,-59.19
1271.948,-59.26
1271.963,-59.54
1271.978,-59.4
1271.993,-58.77
1272.008,-58.6
1272.023,-58.82
1272.038,-58.77
1272.053,-58.75
1272.068,-58.3
1272.083,-58.33
1272.098,-58.55
1272.113,-58.46
1272.128,-58.4
1272.143,-58.44
1272.158,-58.49
1272.173,-58.65
1272.188,-58.64
1272.203,-58.52
1272.218,-58.69
1272.233,-58.83
1272.248,-58.71
1272.263,-58.63
1272.278,-58.93
1272.293,-59.01
1272.308,-59.03
1272.323,-58.88
1272.338,-59.03
1272.353,-59.48
1272.368,-59.22
1272.383,-59.27
1272.398,-59.24
1272.413,-59.33
1272.428,-59.27
1272.443,-59.27
1272.458,-59.38
1272.473,-59.19
1272.488,-59.5
1272.503,-59.41
1272.518,-59.27
1272.533,-59.22
1272.548,-59.31
1272.563,-59.59
1272.578,-59.54
1272.593,-59.53
1272.608,-59.5
1272.623,-59.41
1272.638,-59.7
1272.653,-59.66
1272.668,-59.56
1272.683,-59.56
1272.698,-59.47
1272.713,-59.68
1272.728,-59.79
1272.743,-59.92
1272.758,-59.97
1272.773,-59.7
1272.788,-60.12
1272.803,-60.09
1272.818,-60.3
1272.833,-60.17
1272.848,-60.11
1272.863,-60.98
1272.878,-60.7
1272.893,-61.08
1272.908,-60.97
1272.923,-61.03
1272.938,-62.23
1272.953,-61.8
1272.968,-61.9
1272.983,-61.75
1272.998,-62.08
1273.013,-63.09
1273.028,-62.76
1273.043,-62.79
1273.058,-62.53
1273.073,-63.87
1273.088,-63.12
1273.103,-63.18
1273.118,-63.53
1273.133,-62.94
1273.148,-63.73
1273.163,-63.04
1273.178,-63.29
1273.193,-63.31
1273.208,-63.44
1273.223,-64.71
1273.238,-63.73
1273.253,-64.33
1273.268,-64.48
1273.283,-64.05
1273.298,-66.09
1273.313,-64.44
1273.328,-65.28
1273.343,-64.7
1273.358,-63.88
1273.373,-65.32
1273.388,-64.88
1273.403,-65.31
1273.418,-65.18
1273.433,-66.91
1273.448,-70.01
1273.463,-69.76
1273.478,-72.9
1273.493,-68.49
1273.508,-210.0
1273.523,-210.0
1273.538,-210.0
1273.553,-210.0
1273.568,-210.0
1273.583,-210.0
1273.598,-210.0
1273.613,-210.0
1273.628,-210.0
1273.643,-210.0
1273.658,-210.0
1273.673,-210.0
1273.688,-210.0
1273.703,-210.0
1273.718,-210.0
1273.733,-210.0
1273.748,-210.0
1273.763,-210.0
1273.778,-210.0
1273.793,-210.0
1273.808,-210.0
1273.823,-210.0
1273.838,-210.0
1273.853,-210.0
1273.868,-210.0
1273.883,-210.0
1273.898,-210.0
1273.913,-210.0
1273.928,-210.0
1273.943,-210.0
1273.958,-210.0
1273.973,-210.0
1273.988,-210.0
1274.003,-210.0
1274.018,-210.0
1274.033,-210.0
1274.048,-210.0
1274.063,-210.0
1274.078,-210.0
1274.093,-210.0
1274.108,-210.0
1274.123,-210.0
1274.138,-210.0
1274.153,-210.0
1274.168,-210.0
1274.183,-210.0
1274.198,-210.0
1274.213,-210.0
1274.228,-210.0
1274.243,-210.0
1274.258,-210.0
1274.273,-210.0
1274.288,-210.0
1274.303,-210.0
1274.318,-210.0
1274.333,-70.93
1274.348,-74.77
1274.363,-71.36
1274.378,-73.71
1274.393,-74.68
1274.408,-210.0
1274.423,-210.0
1274.438,-76.91
1274.453,-70.12
1274.468,-69.94
1274.483,-73.85
1274.498,-74.1
1274.513,-69.69
1274.528,-67.88
1274.543,-67.25
1274.558,-70.83
1274.573,-71.55
1274.588,-67.49
1274.603,-66.79
1274.618,-66.51
1274.633,-73.65
1274.648,-73.32
1274.663,-67.07
1274.678,-69.27
1274.693,-68.1
1274.708,-77.58
1274.723,-71.6
1274.738,-67.59
1274.753,-68.37
1274.768,-66.91
1274.783,-70.63
1274.798,-71.21
1274.813,-68.92
1274.828,-68.06
1274.843,-66.79
1274.858,-67.85
1274.873,-67.26
1274.888,-65.45
1274.903,-65.64
1274.918,-64.52
1274.933,-65.36
1274.948,-64.4
1274.963,-64.32
1274.978,-63.63
1274.993,-62.87
1275.008,-63.38
1275.023,-62.68
1275.038,-63.1
1275.053,-62.27
1275.068,-62.99
1275.083,-62.98
1275.098,-62.23
1275.113,-63.13
1275.128,-62.4
1275.143,-63.29
1275.158,-62.58
1275.173,-61.73
1275.188,-62.24
1275.203,-62.44
1275.218,-63.1
1275.233,-62.8
1275.248,-61.65
1275.263,-62.76
1275.278,-62.45
1275.293,-63.65
1275.308,-62.78
1275.323,-61.73
1275.338,-63.58
1275.353,-63.79
1275.368,-66.63
1275.383,-64.65
1275.398,-63.27
1275.413,-63.5
1275.428,-63.85
1275.443,-64.94
1275.458,-63.96
1275.473,-63.12
1275.488,-62.91
1275.503,-63.16
1275.518,-64.12
1275.533,-63.29
1275.548,-62.5
1275.563,-62.62
1275.578,-62.7
1275.593,-64.0
1275.608,-63.71
1275.623,-63.54
1275.638,-63.25
1275.653,-63.24
1275.668,-63.68
1275.683,-62.45
1275.698,-62.53
1275.713,-62.44
1275.728,-63.74
1275.743,-63.79
1275.758,-62.53
1275.773,-63.16
1275.788,-63.49
1275.803,-64.78
1275.818,-63.99
1275.833,-63.01
1275.848,-64.24
1275.863,-63.22
1275.878,-63.86
1275.893,-63.48
1275.908,-62.79
1275.923,-64.15
1275.938,-63.61
1275.953,-64.55
1275.968,-63.73
1275.983,-63.33
1275.998,-64.73
1276.013,-64.5
1276.028,-65.73
1276.043,-63.67
1276.058,-64.95
1276.073,-65.1
1276.088,-64.36
1276.103,-64.76
1276.118,-63.38
1276.133,-64.49
1276.148,-63.83
1276.163,-63.63
1276.178,-63.68
1276.193,-63.26
1276.208,-64.2
1276.223,-63.23
1276.238,-62.97
1276.253,-63.32
1276.268,-62.77
1276.283,-64.2
1276.298,-62.94
1276.313,-62.97
1276.328,-63.26
1276.343,-62.52
1276.358,-63.07
1276.373,-61.66
1276.388,-61.98
1276.403,-62.11
1276.418,-62.15
1276.433,-61.99
1276.448,-61.19
1276.463,-61.69
1276.478,-61.96
1276.493,-62.04
1276.508,-61.53
1276.523,-60.79
1276.538,-60.73
1276.553,-61.5
1276.568,-61.49
1276.583,-60.9
1276.598,-60.38
1276.613,-60.86
1276.628,-60.91
1276.643,-60.9
1276.658,-60.5
1276.673,-60.36
1276.688,-61.65
1276.703,-61.77
1276.718,-61.85
1276.733,-60.67
1276.748,-60.71
1276.763,-61.62
1276.778,-61.9
1276.793,-61.62
1276.808,-60.37
1276.823,-60.79
1276.838,-61.61
1276.853,-61.33
1276.868,-61.57
1276.883,-60.99
1276.898,-61.86
1276.913,-62.83
1276.928,-61.62
1276.943,-61.96
1276.958,-61.39
1276.973,-61.97
1276.988,-62.62
1277.003,-61.56
1277.018,-61.8
1277.033,-61.44
1277.048,-62.56
1277.063,-62.5
1277.078,-61.38
1277.093,-61.29
1277.108,-61.53
1277.123,-62.42
1277.138,-61.73
1277.153,-60.81
1277.168,-61.44
1277.183,-61.65
1277.198,-62.82
1277.214,-61.47
1277.228,-61.2
1277.243,-61.58
1277.258,-62.24
1277.273,-62.85
1277.288,-61.4
1277.303,-61.13
1277.318,-61.86
1277.333,-62.86
1277.349,-63.11
1277.364,-62.06
1277.378,-62.12
1277.393,-62.99
1277.408,-64.66
1277.423,-64.69
1277.438,-63.29
1277.453,-63.5
1277.469,-64.48
1277.484,-65.02
1277.499,-64.63
1277.514,-63.84
1277.528,-63.84
1277.543,-67.54
1277.558,-66.87
1277.573,-65.17
1277.589,-64.58
1277.604,-65.24
1277.619,-67.44
1277.634,-66.22
1277.649,-64.63
1277.663,-64.41
1277.678,-65.37
1277.693,-66.01
1277.708,-64.95
1277.724,-62.93
1277.739,-62.72
1277.754,-63.21
1277.769,-63.51
1277.784,-62.12
1277.799,-61.49
1277.813,-61.75
1277.828,-62.13
1277.844,-62.4
1277.859,-61.22
1277.874,-60.85
1277.889,-60.83
1277.904,-61.07
1277.919,-60.9
1277.934,-60.7
1277.948,-60.54
1277.964,-60.9
1277.979,-61.26
1277.994,-60.65
1278.009,-60.62
1278.024,-60.78
1278.039,-61.77
1278.054,-62.21
1278.069,-61.63
1278.084,-61.38
1278.099,-61.66
1278.114,-63.09
1278.129,-62.98
1278.144,-62.62
1278.159,-62.61
1278.174,-62.45
1278.189,-63.64
1278.204,-63.22
1278.219,-62.87
1278.234,-62.88
1278.249,-63.06
1278.264,-63.7
1278.279,-63.76
1278.294,-63.52
1278.309,-63.73
1278.324,-64.29
1278.339,-64.69
1278.354,-63.14
1278.369,-62.87
1278.384,-63.29
1278.399,-63.64
1278.414,-63.14
1278.429,-61.42
1278.444,-61.55
1278.459,-61.72
1278.474,-62.24
1278.489,-61.75
1278.504,-60.82
1278.519,-60.77
1278.534,-61.68
1278.549,-61.55
1278.564,-61.19
1278.579,-60.94
1278.594,-61.82
1278.609,-61.97
1278.624,-61.55
1278.639,-61.4
1278.654,-61.44
1278.669,-62.4
1278.684,-63.58
1278.699,-62.3
1278.714,-61.52
1278.729,-62.08
1278.744,-63.82
1278.759,-65.1
1278.774,-63.34
1278.789,-63.27
1278.804,-64.2
1278.819,-66.16
1278.834,-66.89
1278.849,-64.99
1278.864,-65.0
1278.879,-66.43
1278.894,-71.63
1278.909,-67.5
1278.924,-64.98
1278.939,-64.86
1278.954,-65.93
1278.969,-67.3
1278.984,-65.08
1278.999,-64.48
1279.014,-64.54
1279.029,-65.55
1279.044,-65.41
1279.059,-63.36
1279.074,-62.93
1279.089,-62.74
1279.104,-63.91
1279.119,-63.6
1279.134,-62.16
1279.149,-61.61
1279.164,-62.19
1279.179,-63.32
1279.194,-62.5
1279.209,-61.47
1279.224,-61.7
1279.239,-62.02
1279.254,-62.98
1279.269,-62.44
1279.284,-61.15
1279.299,-61.36
1279.314,-62.01
1279.329,-62.62
1279.344,-61.4
1279.359,-61.16
1279.374,-61.37
1279.389,-61.56
1279.404,-61.76
1279.419,-61.2
1279.434,-61.32
1279.449,-61.66
1279.464,-62.82
1279.479,-62.11
1279.494,-62.35
1279.509,-62.08
1279.524,-63.28
1279.539,-63.87
1279.554,-63.95
1279.569,-63.9
1279.584,-63.46
1279.599,-63.48
1279.614,-64.35
1279.629,-64.27
1279.644,-63.8
1279.659,-63.22
1279.674,-63.16
1279.689,-62.34
1279.704,-62.36
1279.719,-62.42
1279.734,-62.72
1279.749,-62.73
1279.764,-61.62
1279.779,-61.51
1279.794,-61.57
1279.809,-61.58
1279.824,-61.81
1279.839,-61.04
1279.854,-60.71
1279.869,-60.79
1279.884,-60.74
1279.899,-60.81
1279.914,-60.71
1279.929,-60.98
1279.944,-61.0
1279.959,-60.93
1279.974,-61.18
1279.989,-60.85
1280.004,-60.83
1280.019,-61.35
1280.034,-61.53
1280.049,-61.31
1280.064,-61.05
1280.079,-60.92
1280.094,-62.23
1280.109,-62.27
1280.124,-61.81
1280.139,-61.63
1280.154,-62.24
1280.169,-63.72
1280.184,-63.59
1280.199,-63.12
1280.214,-62.82
1280.229,-62.79
1280.244,-64.15
1280.259,-63.79
1280.274,-62.92
1280.289,-63.2
1280.304,-63.54
1280.319,-64.26
1280.334,-62.33
1280.349,-62.42
1280.364,-62.57
1280.379,-63.41
1280.394,-64.88
1280.409,-62.96
1280.424,-62.4
1280.439,-62.63
1280.454,-64.06
1280.469,-63.34
1280.484,-62.39
1280.499,-61.73
1280.514,-62.08
1280.529,-63.22
1280.544,-62.89
1280.559,-61.3
1280.574,-60.87
1280.589,-61.52
1280.604,-62.1
1280.619,-61.82
1280.634,-60.72
1280.649,-60.97
1280.664,-61.29
1280.679,-61.98
1280.694,-61.74
1280.709,-61.01
1280.724,-61.75
1280.739,-62.15
1280.754,-62.25
1280.769,-61.71
1280.784,-61.7
1280.799,-62.72
1280.814,-63.28
1280.829,-62.98
1280.844,-62.69
1280.859,-63.05
1280.874,-64.93
1280.889,-64.69
1280.904,-63.69
1280.919,-63.82
1280.934,-63.38
1280.949,-65.64
1280.964,-65.2
1280.979,-63.57
1280.994,-63.46
1281.009,-64.35
1281.024,-65.54
1281.039,-64.02
1281.054,-63.38
1281.069,-63.07
1281.084,-64.13
1281.099,-63.79
1281.114,-62.74
1281.129,-62.24
1281.144,-62.42
1281.159,-62.99
1281.174,-62.65
1281.189,-61.27
1281.204,-60.91
1281.219,-61.03
1281.234,-61.75
1281.249,-61.79
1281.264,-60.7
1281.279,-60.8
1281.294,-60.66
1281.309,-60.95
1281.324,-60.61
1281.339,-60.34
1281.354,-60.41
1281.369,-60.74
1281.384,-61.04
1281.399,-60.29
1281.414,-60.11
1281.429,-60.7
1281.444,-61.62
1281.459,-61.49
1281.474,-60.73
1281.489,-60.72
1281.504,-61.48
1281.519,-62.38
1281.534,-61.98
1281.549,-60.78
1281.564,-61.03
1281.579,-62.21
1281.594,-62.27
1281.609,-61.03
1281.624,-60.52
1281.639,-60.78
1281.654,-61.46
1281.669,-61.39
1281.684,-60.51
1281.699,-59.9
1281.714,-60.31
1281.729,-60.65
1281.744,-60.2
1281.759,-59.37
1281.774,-59.9
1281.789,-60.23
1281.804,-60.45
1281.819,-60.11
1281.834,-59.7
1281.849,-60.32
1281.864,-60.62
1281.879,-60.39
1281.894,-60.05
1281.909,-59.53
1281.924,-60.17
1281.939,-60.49
1281.954,-59.64
1281.969,-59.45
1281.984,-59.48
1281.999,-60.26
1282.014,-60.21
1282.029,-59.6
1282.044,-59.52
1282.059,-59.25
1282.074,-60.03
1282.089,-59.88
1282.104,-59.24
1282.119,-59.61
1282.134,-59.58
1282.149,-60.4
1282.164,-60.07
1282.179,-59.51
1282.194,-59.98
1282.209,-60.4
1282.224,-61.27
1282.239,-60.68
1282.254,-60.04
1282.269,-60.47
1282.284,-60.96
1282.299,-62.13
1282.314,-61.58
1282.329,-60.89
1282.344,-61.57
1282.359,-62.01
1282.374,-61.94
1282.389,-61.09
1282.404,-60.9
1282.419,-62.04
1282.434,-62.47
1282.449,-61.63
1282.464,-60.68
1282.479,-61.04
1282.494,-62.12
1282.509,-61.81
1282.524,-60.94
1282.539,-60.43
1282.554,-61.58
1282.569,-62.33
1282.584,-61.41
1282.599,-60.85
1282.614,-61.56
1282.629,-62.41
1282.644,-63.67
1282.659,-62.07
1282.674,-62.09
1282.689,-62.6
1282.704,-64.46
1282.719,-63.78
1282.734,-62.5
1282.749,-62.42
1282.764,-64.09
1282.779,-63.56
1282.794,-63.07
1282.809,-62.55
1282.824,-62.22
1282.839,-63.21
1282.854,-62.25
1282.869,-61.36
1282.884,-61.08
1282.899,-61.98
1282.914,-63.49
1282.929,-62.19
1282.944,-61.63
1282.959,-62.48
1282.974,-63.42
1282.989,-64.34
1283.004,-62.62
1283.019,-62.37
1283.034,-63.33
1283.049,-64.02
1283.064,-64.18
1283.079,-62.53
1283.094,-62.58
1283.109,-64.45
1283.124,-63.72
1283.139,-63.6
1283.154,-63.13
1283.169,-62.94
1283.184,-64.83
1283.199,-63.71
1283.214,-62.57
1283.229,-61.97
1283.244,-63.15
1283.259,-64.71
1283.274,-63.33
1283.289,-62.37
1283.304,-62.42
1283.319,-62.33
1283.334,-63.44
1283.349,-62.74
1283.364,-62.22
1283.379,-63.17
1283.394,-63.15
1283.409,-63.27
1283.424,-62.74
1283.439,-61.76
1283.454,-62.99
1283.469,-62.97
1283.484,-62.81
1283.499,-62.64
1283.514,-62.13
1283.529,-63.62
1283.544,-63.02
1283.559,-62.02
1283.574,-62.15
1283.589,-62.21
1283.604,-63.76
1283.619,-62.87
1283.634,-61.96
1283.649,-61.68
1283.664,-62.19
1283.679,-63.03
1283.694,-62.07
1283.709,-61.29
1283.724,-62.41
1283.739,-63.17
1283.754,-63.51
1283.769,-62.54
1283.784,-62.39
1283.799,-64.12
1283.814,-63.23
1283.829,-63.12
1283.844,-62.82
1283.859,-62.78
1283.874,-64.82
1283.889,-63.97
1283.904,-62.61
1283.919,-62.38
1283.934,-62.72
1283.949,-63.8
1283.964,-62.92
1283.979,-62.74
1283.994,-63.0
1284.009,-63.4
1284.024,-64.55
1284.039,-62.66
1284.054,-62.56
1284.069,-63.63
1284.084,-63.99
1284.099,-63.65
1284.114,-62.06
1284.129,-62.23
1284.144,-63.47
1284.159,-62.23
1284.174,-62.03
1284.189,-62.07
1284.204,-62.36
1284.219,-63.57
1284.234,-63.33
1284.249,-62.67
1284.264,-62.29
1284.279,-63.45
1284.294,-64.4
1284.309,-62.82
1284.324,-62.87
1284.339,-63.07
1284.354,-63.58
1284.369,-64.29
1284.384,-62.75
1284.399,-63.08
1284.414,-64.97
1284.429,-64.67
1284.444,-64.32
1284.459,-62.32
1284.474,-62.64
1284.489,-63.89
1284.504,-62.66
1284.519,-62.58
1284.534,-61.57
1284.549,-62.46
1284.564,-63.41
1284.579,-62.09
1284.594,-62.01
1284.609,-61.97
1284.624,-62.67
1284.639,-63.76
1284.654,-62.76
1284.669,-62.63
1284.684,-63.02
1284.699,-63.14
1284.714,-63.47
1284.729,-62.68
1284.744,-62.31
1284.759,-62.95
1284.774,-62.68
1284.789,-62.71
1284.804,-61.46
1284.819,-61.83
1284.834,-62.67
1284.849,-61.76
1284.864,-61.82
1284.879,-60.89
1284.894,-61.59
1284.909,-62.16
1284.924,-61.44
1284.939,-61.61
1284.954,-61.79
1284.969,-62.34
1284.984,-62.22
1284.999,-61.36
1285.014,-62.0
1285.029,-61.87
1285.044,-62.04
1285.059,-61.85
1285.074,-60.95
1285.089,-61.61
1285.104,-62.24
1285.119,-62.26
1285.134,-62.36
1285.149,-61.3
1285.164,-62.57
1285.179,-63.08
1285.194,-61.95
1285.209,-62.01
1285.224,-61.35
1285.24,-62.27
1285.255,-62.12
1285.269,-61.42
1285.284,-61.27
1285.299,-61.36
1285.314,-62.19
1285.329,-62.19
1285.344,-61.37
1285.359,-61.69
1285.375,-61.69
1285.39,-61.55
1285.404,-61.53
1285.419,-60.7
1285.434,-61.07
1285.449,-61.53
1285.464,-61.41
1285.479,-61.44
1285.495,-61.06
1285.51,-62.14
1285.525,-62.0
1285.54,-61.86
1285.554,-61.89
1285.569,-61.38
1285.584,-62.26
1285.599,-62.38
1285.615,-61.61
1285.63,-61.28
1285.645,-61.41
1285.66,-62.18
1285.675,-62.0
1285.689,-61.03
1285.704,-61.86
1285.719,-62.19
1285.734,-61.54
1285.75,-61.12
1285.765,-60.64
1285.78,-61.31
1285.795,-61.45
1285.81,-61.35
1285.825,-60.89
1285.839,-60.67
1285.854,-61.62
1285.87,-61.3
1285.885,-61.29
1285.9,-60.89
1285.915,-60.55
1285.93,-61.51
1285.945,-61.53
1285.96,-60.74
1285.974,-60.72
1285.99,-61.01
1286.005,-61.89
1286.02,-60.77
1286.035,-60.26
1286.05,-60.74
1286.065,-61.11
1286.08,-61.17
1286.095,-60.61
1286.11,-60.11
1286.125,-60.98
1286.14,-61.02
1286.155,-61.04
1286.17,-60.18
1286.185,-60.11
1286.2,-60.97
1286.215,-60.91
1286.23,-60.8
1286.245,-59.99
1286.26,-59.88
1286.275,-60.61
1286.29,-60.48
1286.305,-60.0
1286.32,-59.64
1286.335,-59.97
1286.35,-60.43
1286.365,-60.13
1286.38,-59.67
1286.395,-60.12
1286.41,-60.52
1286.425,-60.44
1286.44,-60.25
1286.455,-59.84
1286.47,-60.6
1286.485,-60.87
1286.5,-60.47
1286.515,-59.75
1286.53,-59.71
1286.545,-60.54
1286.56,-60.43
1286.575,-60.14
1286.59,-59.93
1286.605,-60.42
1286.62,-61.18
1286.635,-61.1
1286.65,-60.33
1286.665,-60.15
1286.68,-60.56
1286.695,-60.54
1286.71,-59.9
1286.725,-59.41
1286.74,-59.91
1286.755,-60.43
1286.77,-60.29
1286.785,-59.86
1286.8,-59.59
1286.815,-60.33
1286.83,-60.53
1286.845,-60.31
1286.86,-60.15
1286.875,-60.8
1286.89,-61.62
1286.905,-61.7
1286.92,-61.65
1286.935,-61.47
1286.95,-61.69
1286.965,-61.59
1286.98,-61.16
1286.995,-60.94
1287.01,-60.69
1287.025,-61.21
1287.04,-60.89
1287.055,-60.47
1287.07,-61.02
1287.085,-61.95
1287.1,-62.74
1287.115,-62.53
1287.13,-61.86
1287.145,-62.23
1287.16,-63.02
1287.175,-64.07
1287.19,-63.66
1287.205,-62.8
1287.22,-62.92
1287.235,-63.08
1287.25,-63.32
1287.265,-63.97
1287.28,-63.15
1287.295,-63.9
1287.31,-64.06
1287.325,-63.47
1287.34,-63.1
1287.355,-63.37
1287.37,-64.06
1287.385,-63.85
1287.4,-63.16
1287.415,-62.82
1287.43,-63.82
1287.445,-63.22
1287.46,-63.64
1287.475,-62.52
1287.49,-63.06
1287.505,-64.29
1287.52,-63.94
1287.535,-65.11
1287.55,-63.57
1287.565,-64.42
1287.58,-65.01
1287.595,-64.32
1287.61,-63.62
1287.625,-63.53
1287.64,-62.99
1287.655,-63.7
1287.67,-62.99
1287.685,-62.7
1287.7,-63.63
1287.715,-63.4
1287.73,-63.59
1287.745,-62.93
1287.76,-62.96
1287.775,-63.68
1287.79,-63.54
1287.805,-63.97
1287.82,-64.06
1287.835,-64.99
1287.85,-66.68
1287.865,-64.71
1287.88,-63.62
1287.895,-64.07
1287.91,-63.3
1287.925,-63.99
1287.94,-63.0
1287.955,-62.39
1287.97,-63.78
1287.985,-63.44
1288.0,-63.49
1288.015,-63.63
1288.03,-63.26
1288.045,-64.92
1288.06,-65.07
1288.075,-63.37
1288.09,-63.06
1288.105,-62.14
1288.12,-62.81
1288.135,-62.75
1288.15,-62.31
1288.165,-62.98
1288.18,-61.92
1288.195,-62.4
1288.21,-62.21
1288.225,-62.29
1288.24,-62.38
1288.255,-62.11
1288.27,-61.92
1288.285,-63.25
1288.3,-63.09
1288.315,-62.91
1288.33,-63.02
1288.345,-63.1
1288.36,-62.98
1288.375,-61.83
1288.39,-61.69
1288.405,-62.02
1288.42,-62.38
1288.435,-62.33
1288.45,-61.82
1288.465,-61.58
1288.48,-63.14
1288.495,-63.05
1288.51,-62.52
1288.525,-62.54
1288.54,-62.15
1288.555,-63.9
1288.57,-61.96
1288.585,-62.09
1288.6,-62.33
1288.615,-62.72
1288.63,-62.56
1288.645,-62.39
1288.66,-62.09
1288.675,-62.15
1288.69,-62.08
1288.705,-62.12
1288.72,-61.64
1288.735,-61.58
1288.75,-62.85
1288.765,-62.83
1288.78,-62.8
1288.795,-62.6
1288.81,-62.91
1288.825,-62.89
1288.84,-62.42
1288.855,-61.47
1288.87,-61.97
1288.885,-62.15
1288.9,-61.8
1288.915,-61.4
1288.93,-60.94
1288.945,-61.67
1288.96,-61.78
1288.975,-61.7
1288.99,-61.48
1289.005,-61.55
1289.02,-61.81
1289.035,-62.44
1289.05,-61.28
1289.065,-61.76
1289.08,-61.93
1289.095,-61.96
1289.11,-62.64
1289.125,-61.73
1289.14,-61.64
1289.155,-61.59
1289.17,-61.47
1289.185,-61.85
1289.2,-61.24
1289.215,-62.03
1289.23,-62.28
1289.245,-62.32
1289.26,-62.9
1289.275,-62.88
1289.29,-62.5
1289.305,-62.21
1289.32,-61.54
1289.335,-62.44
1289.35,-62.45
1289.365,-61.85
1289.38,-62.88
1289.395,-62.54
1289.41,-62.61
1289.425,-62.76
1289.44,-61.97
1289.455,-63.54
1289.47,-63.91
1289.485,-62.77
1289.5,-62.37
1289.515,-62.42
1289.53,-63.27
1289.545,-63.08
1289.56,-61.88
1289.575,-63.36
1289.59,-62.96
1289.605,-62.7
1289.62,-62.21
1289.635,-61.44
1289.65,-62.26
1289.665,-62.06
1289.68,-62.14
1289.695,-62.88
1289.71,-62.24
1289.725,-63.86
1289.74,-64.23
1289.755,-62.9
1289.77,-63.58
1289.785,-63.36
1289.8,-62.98
1289.815,-62.79
1289.83,-62.26
1289.845,-62.49
1289.86,-62.61
1289.875,-62.0
1289.89,-62.58
1289.905,-62.07
1289.92,-62.99
1289.935,-63.64
1289.95,-62.65
1289.965,-63.29
1289.98,-62.92
1289.995,-63.7
1290.01,-63.66
1290.025,-63.36
1290.04,-62.69
1290.055,-63.23
1290.07,-62.84
1290.085,-62.95
1290.1,-62.39
1290.115,-62.19
1290.13,-62.44
1290.145,-62.41
1290.16,-63.02
1290.175,-63.04
1290.19,-63.19
1290.205,-63.75
1290.22,-62.94
1290.235,-62.76
1290.25,-63.01
1290.265,-61.78
1290.28,-62.42
1290.295,-61.89
1290.31,-61.85
1290.325,-62.79
1290.34,-61.71
1290.355,-61.81
1290.37,-61.98
1290.385,-61.88
1290.4,-62.05
1290.415,-61.99
1290.43,-61.96
1290.445,-63.11
1290.46,-61.5
1290.475,-61.42
1290.49,-61.42
1290.505,-61.57
1290.52,-61.92
1290.535,-60.84
1290.55,-60.85
1290.565,-60.73
1290.58,-60.51
1290.595,-60.62
1290.61,-60.55
1290.625,-60.93
1290.64,-61.91
1290.655,-61.06
1290.67,-61.38
1290.685,-61.57
1290.7,-61.26
1290.715,-62.09
1290.73,-61.22
1290.745,-60.79
1290.76,-61.3
1290.775,-60.81
1290.79,-61.13
1290.805,-61.18
1290.82,-61.09
1290.835,-61.78
1290.85,-61.62
1290.865,-60.86
1290.88,-61.41
1290.895,-61.25
1290.91,-61.53
1290.925,-61.25
1290.94,-60.64
1290.955,-61.24
1290.97,-62.06
1290.985,-62.12
1291.0,-61.48
1291.015,-61.53
1291.03,-61.8
1291.045,-62.32
1291.06,-61.68
1291.075,-61.37
1291.09,-61.35
1291.105,-62.03
1291.12,-61.72
1291.135,-61.16
1291.15,-61.22
1291.165,-62.22
1291.18,-61.54
1291.195,-61.24
1291.21,-60.67
1291.225,-61.06
1291.24,-61.75
1291.255,-60.99
1291.27,-60.85
1291.285,-61.27
1291.3,-62.01
1291.315,-62.38
1291.33,-61.23
1291.345,-61.15
1291.36,-62.44
1291.375,-63.13
1291.39,-61.48
1291.405,-60.98
1291.42,-61.31
1291.435,-62.25
1291.45,-61.14
1291.465,-61.05
1291.48,-61.18
1291.495,-61.57
1291.51,-62.61
1291.525,-61.49
1291.54,-61.46
1291.555,-62.16
1291.57,-63.37
1291.585,-62.42
1291.6,-61.85
1291.615,-62.04
1291.63,-62.86
1291.645,-62.12
1291.66,-61.85
1291.675,-61.48
1291.69,-62.48
1291.705,-63.34
1291.72,-62.29
1291.735,-61.36
1291.75,-62.26
1291.765,-62.68
1291.78,-62.55
1291.795,-61.37
1291.81,-60.95
1291.825,-61.98
1291.84,-62.34
1291.855,-61.1
1291.87,-61.44
1291.885,-62.22
1291.9,-62.35
1291.915,-62.69
1291.93,-61.46
1291.945,-61.85
1291.96,-62.82
1291.975,-62.05
1291.99,-61.01
1292.005,-60.9
1292.02,-61.12
1292.035,-61.74
1292.05,-60.78
1292.065,-60.4
1292.08,-60.85
1292.095,-61.75
1292.11,-61.15
1292.125,-60.7
1292.14,-60.72
1292.155,-61.77
1292.17,-61.47
1292.185,-61.07
1292.2,-60.39
1292.215,-61.27
1292.23,-61.71
1292.245,-61.55
1292.26,-60.92
1292.275,-61.12
1292.29,-61.14
1292.305,-61.32
1292.32,-60.41
1292.335,-60.39
1292.35,-60.75
1292.365,-60.62
1292.38,-60.09
1292.395,-60.29
1292.41,-60.7
1292.425,-61.62
1292.44,-61.33
1292.455,-61.11
1292.47,-61.14
1292.485,-61.51
1292.5,-62.07
1292.515,-60.87
1292.53,-60.64
1292.545,-60.84
1292.56,-60.94
1292.575,-60.85
1292.59,-60.8
1292.605,-60.85
1292.62,-61.98
1292.635,-61.4
1292.65,-61.54
1292.665,-61.41
1292.68,-61.41
1292.695,-61.56
1292.71,-60.8
1292.725,-60.23
1292.74,-60.34
1292.755,-60.44
1292.77,-60.63
1292.785,-60.34
1292.8,-60.26
1292.815,-61.22
1292.83,-60.7
1292.845,-60.45
1292.86,-60.29
1292.875,-60.84
1292.89,-60.91
1292.905,-60.97
1292.92,-60.34
1292.935,-60.9
1292.95,-61.11
1292.965,-61.34
1292.98,-60.7
1292.995,-60.6
1293.01,-61.02
1293.025,-61.55
1293.04,-60.53
1293.055,-60.33
1293.07,-60.63
1293.085,-61.12
1293.1,-60.61
1293.115,-60.48
1293.13,-60.86
1293.145,-61.79
1293.16,-62.0
1293.175,-61.29
1293.19,-60.95
1293.205,-61.77
1293.22,-61.96
1293.235,-61.54
1293.25,-60.59
1293.266,-60.43
1293.281,-61.2
1293.295,-61.57
1293.31,-60.72
1293.325,-60.54
1293.34,-61.37
1293.355,-61.68
1293.37,-61.35
1293.385,-60.88
1293.401,-61.09
1293.416,-62.03
1293.43,-61.27
1293.445,-60.36
1293.46,-60.87
1293.475,-61.26
1293.49,-61.54
1293.505,-60.74
1293.521,-60.81
1293.536,-61.47
1293.551,-61.89
1293.566,-61.31
1293.58,-60.43
1293.595,-60.77
1293.61,-61.79
1293.625,-60.89
1293.641,-60.44
1293.656,-60.34
1293.671,-61.06
1293.686,-62.19
1293.701,-61.4
1293.715,-61.02
1293.73,-62.04
1293.745,-63.18
1293.76,-62.27
1293.776,-61.31
1293.791,-61.22
1293.806,-62.33
1293.821,-61.94
1293.836,-61.55
1293.851,-61.22
1293.865,-62.69
1293.88,-62.48
1293.896,-61.86
1293.911,-61.26
1293.926,-61.39
1293.941,-61.99
1293.956,-61.75
1293.971,-60.92
1293.986,-61.1
1294.001,-61.82
1294.016,-62.05
1294.031,-61.09
1294.046,-61.37
1294.061,-62.41
1294.076,-62.72
1294.091,-62.43
1294.106,-61.53
1294.121,-62.36
1294.136,-63.11
1294.151,-62.0
1294.166,-61.01
1294.181,-61.19
1294.196,-62.01
1294.211,-62.86
1294.226,-61.4
1294.241,-61.15
1294.256,-62.21
1294.271,-62.95
1294.286,-62.03
1294.301,-60.98
1294.316,-61.24
1294.331,-62.73
1294.346,-61.73
1294.361,-61.3
1294.376,-60.93
1294.391,-62.05
1294.406,-63.14
1294.421,-61.82
1294.436,-61.43
1294.451,-62.75
1294.466,-62.65
1294.481,-62.26
1294.496,-61.37
1294.511,-61.36
1294.526,-62.54
1294.541,-62.42
1294.556,-61.36
1294.571,-61.36
1294.586,-62.78
1294.601,-62.64
1294.616,-61.93
1294.631,-61.32
1294.646,-61.72
1294.661,-62.69
1294.676,-61.97
1294.691,-60.66
1294.706,-60.65
1294.721,-61.16
1294.736,-61.56
1294.751,-60.87
1294.766,-60.67
1294.781,-60.97
1294.796,-62.31
1294.811,-61.84
1294.826,-61.11
1294.841,-61.23
1294.856,-61.87
1294.871,-61.64
1294.886,-61.2
1294.901,-60.99
1294.916,-61.9
1294.931,-63.14
1294.946,-61.89
1294.961,-61.59
1294.976,-61.99
1294.991,-62.59
1295.006,-62.34
1295.021,-61.29
1295.036,-61.01
1295.051,-61.45
1295.066,-61.35
1295.081,-61.27
1295.096,-60.74
1295.111,-61.48
1295.126,-61.75
1295.141,-61.59
1295.156,-61.46
1295.171,-61.65
1295.186,-61.67
1295.201,-61.79
1295.216,-60.56
1295.231,-60.61
1295.246,-60.82
1295.261,-60.9
1295.276,-60.52
1295.291,-60.5
1295.306,-60.92
1295.321,-61.92
1295.336,-61.55
1295.351,-61.47
1295.366,-61.4
1295.381,-62.3
1295.396,-62.33
1295.411,-61.31
1295.426,-61.0
1295.441,-61.12
1295.456,-61.1
1295.471,-60.89
1295.486,-60.47
1295.501,-60.67
1295.516,-61.26
1295.531,-60.89
1295.546,-59.88
1295.561,-60.11
1295.576,-60.37
1295.591,-60.3
1295.606,-60.29
1295.621,-59.91
1295.636,-60.12
1295.651,-61.19
1295.666,-61.03
1295.681,-60.8
1295.696,-60.83
1295.711,-60.81
1295.726,-61.47
1295.741,-60.41
1295.756,-60.0
1295.771,-60.93
1295.786,-60.85
1295.801,-60.63
1295.816,-60.34
1295.831,-60.23
1295.846,-61.0
1295.861,-61.13
1295.876,-60.13
1295.891,-60.26
1295.906,-60.3
1295.921,-60.5
1295.936,-59.84
1295.951,-59.52
1295.966,-60.02
1295.981,-60.47
1295.996,-59.78
1296.011,-59.68
1296.026,-59.62
1296.041,-60.41
1296.056,-60.83
1296.071,-59.96
1296.086,-59.77
1296.101,-60.51
1296.116,-60.35
1296.131,-60.54
1296.146,-59.63
1296.161,-59.59
1296.176,-60.41
1296.191,-60.1
1296.206,-59.44
1296.221,-60.0
1296.236,-60.61
1296.251,-61.56
1296.266,-60.73
1296.281,-60.35
1296.296,-61.1
1296.311,-61.6
1296.326,-60.74
1296.341,-60.16
1296.356,-60.59
1296.371,-61.8
1296.386,-61.69
1296.401,-60.52
1296.416,-60.61
1296.431,-61.47
1296.446,-61.93
1296.461,-61.24
1296.476,-60.43
1296.491,-61.01
1296.506,-61.58
1296.521,-61.0
1296.536,-60.5
1296.551,-61.24
1296.566,-61.54
1296.581,-61.64
1296.596,-60.89
1296.611,-60.4
1296.626,-61.03
1296.641,-61.72
1296.656,-60.75
1296.671,-60.36
1296.686,-61.02
1296.701,-61.24
1296.716,-61.54
1296.731,-60.54
1296.746,-60.59
1296.761,-61.69
1296.776,-61.02
1296.791,-60.99
1296.806,-60.86
1296.821,-61.01
1296.836,-61.93
1296.851,-61.08
1296.866,-60.68
1296.881,-61.44
1296.896,-62.01
1296.911,-61.94
1296.926,-61.08
1296.941,-60.78
1296.956,-61.78
1296.971,-61.99
1296.986,-61.14
1297.001,-61.16
1297.016,-61.79
1297.031,-62.2
1297.046,-61.57
1297.061,-60.58
1297.076,-61.16
1297.091,-62.32
1297.106,-61.23
1297.121,-60.96
1297.136,-60.86
1297.151,-61.6
1297.166,-61.55
1297.181,-60.72
1297.196,-60.47
1297.211,-61.62
1297.226,-61.51
1297.241,-60.71
1297.256,-60.13
1297.271,-60.77
1297.286,-61.68
1297.301,-61.49
1297.316,-60.78
1297.331,-61.07
1297.346,-61.84
1297.361,-61.04
1297.376,-60.33
1297.391,-60.35
1297.406,-61.13
1297.421,-61.21
1297.436,-60.25
1297.451,-59.9
1297.466,-60.73
1297.481,-61.12
1297.496,-60.91
1297.511,-60.73
1297.526,-60.98
1297.541,-61.89
1297.556,-61.24
1297.571,-60.73
1297.586,-61.19
1297.601,-61.64
1297.616,-61.76
1297.631,-61.73
1297.646,-60.99
1297.661,-62.12
1297.676,-62.14
1297.691,-60.71
1297.706,-60.92
1297.721,-61.19
1297.736,-61.26
1297.751,-61.49
1297.766,-60.44
1297.781,-60.58
1297.796,-61.45
1297.811,-60.63
1297.826,-60.54
1297.841,-60.68
1297.856,-60.9
1297.871,-61.08
1297.886,-60.4
1297.901,-60.02
1297.916,-61.03
1297.931,-61.1
1297.946,-61.07
1297.961,-61.01
1297.976,-61.64
1297.991,-62.15
1298.006,-62.16
1298.021,-61.14
1298.036,-61.49
1298.051,-62.14
1298.066,-62.34
1298.081,-61.9
1298.096,-61.14
1298.111,-61.77
1298.126,-62.2
1298.141,-61.46
1298.156,-60.84
1298.171,-61.63
1298.186,-61.84
1298.201,-61.76
1298.216,-60.93
1298.231,-60.99
1298.246,-62.24
1298.261,-62.04
1298.276,-61.11
1298.291,-60.78
1298.306,-60.78
1298.321,-60.77
1298.336,-60.56
1298.351,-59.89
1298.366,-60.19
1298.381,-60.51
1298.396,-59.91
1298.411,-59.37
1298.426,-59.57
1298.441,-59.92
1298.456,-60.33
1298.471,-59.73
1298.486,-59.72
1298.501,-60.27
1298.516,-60.13
1298.531,-59.86
1298.546,-59.49
1298.561,-59.53
1298.576,-60.38
1298.591,-60.0
1298.606,-59.47
1298.621,-59.78
1298.636,-60.32
1298.651,-60.31
1298.666,-59.56
1298.681,-59.2
1298.696,-59.53
1298.711,-59.95
1298.726,-59.31
1298.741,-59.3
1298.756,-59.69
1298.771,-60.09
1298.786,-60.0
1298.801,-59.35
1298.816,-59.55
1298.831,-60.29
1298.846,-59.78
1298.861,-59.42
1298.876,-59.68
1298.891,-60.4
1298.906,-60.37
1298.921,-59.49
1298.936,-59.29
1298.951,-59.89
1298.966,-60.05
1298.981,-59.16
1298.996,-58.71
1299.011,-59.1
1299.026,-59.53
1299.041,-59.52
1299.056,-58.93
1299.071,-58.98
1299.086,-59.71
1299.101,-59.66
1299.116,-59.09
1299.131,-59.12
1299.146,-59.26
1299.161,-59.92
1299.176,-59.33
1299.191,-59.07
1299.206,-59.72
1299.221,-60.0
1299.236,-59.72
1299.251,-59.13
1299.266,-59.16
1299.281,-59.71
1299.296,-59.59
1299.311,-59.0
1299.326,-59.17
1299.341,-59.68
1299.356,-59.81
1299.371,-59.71
1299.386,-59.37
1299.401,-59.85
1299.416,-60.62
1299.431,-59.92
1299.446,-59.74
1299.461,-60.01
1299.476,-60.12
1299.491,-60.53
1299.506,-59.75
1299.521,-59.45
1299.536,-60.33
1299.551,-60.45
1299.566,-60.12
1299.581,-59.63
1299.596,-60.22
1299.611,-60.54
1299.626,-60.8
1299.641,-59.78
1299.656,-60.09
1299.671,-60.68
1299.686,-60.82
1299.701,-60.72
1299.716,-60.77
1299.731,-61.15
1299.746,-62.19
1299.761,-61.01
1299.776,-60.93
1299.791,-61.58
1299.806,-62.1
1299.821,-61.91
1299.836,-61.51
1299.851,-61.76
1299.866,-61.96
1299.881,-62.06
1299.896,-61.19
1299.911,-61.27
1299.926,-62.4
1299.941,-62.11
1299.956,-61.66
1299.971,-61.73
1299.986,-62.34
1300.001,-62.21
1300.016,-61.44
1300.031,-60.87
1300.046,-60.94
1300.061,-61.41
1300.076,-61.45
1300.091,-60.74
1300.106,-61.42
1300.121,-61.65
1300.136,-61.31
1300.151,-61.21
1300.166,-60.7
1300.181,-61.35
1300.196,-61.67
1300.211,-60.88
1300.226,-61.09
1300.241,-61.52
1300.256,-60.94
1300.271,-60.95
1300.286,-60.37
1300.301,-60.87
1300.316,-61.45
1300.331,-61.18
1300.346,-60.64
1300.361,-61.37
1300.376,-61.16
1300.391,-61.14
1300.406,-60.94
1300.421,-60.59
1300.436,-61.75
1300.451,-61.57
1300.466,-60.93
1300.481,-61.56
1300.496,-61.11
1300.511,-61.1
1300.526,-61.53
1300.541,-60.61
1300.556,-60.66
1300.571,-60.89
1300.586,-60.82
1300.601,-60.53
1300.616,-60.72
1300.631,-60.21
1300.646,-60.51
1300.661,-60.09
1300.676,-60.01
1300.691,-60.54
1300.706,-60.43
1300.721,-59.75
1300.736,-59.65
1300.751,-59.48
1300.766,-60.14
1300.781,-60.12
1300.796,-59.62
1300.811,-59.54
1300.826,-59.99
1300.841,-59.79
1300.856,-59.57
1300.871,-60.1
1300.886,-60.2
1300.901,-60.06
1300.916,-59.98
1300.931,-59.59
1300.946,-60.15
1300.961,-60.18
1300.976,-59.86
1300.991,-59.92
1301.006,-60.45
1301.021,-61.01
1301.036,-61.01
1301.051,-60.82
1301.066,-61.23
1301.081,-61.22
1301.096,-61.03
1301.111,-60.3
1301.126,-60.32
1301.141,-61.01
1301.156,-61.05
1301.171,-60.77
1301.186,-60.63
1301.201,-60.93
1301.216,-60.67
1301.231,-60.09
1301.246,-59.65
1301.261,-60.45
1301.276,-60.82
1301.292,-60.65
1301.307,-60.6
1301.321,-60.76
1301.336,-60.75
1301.351,-61.1
1301.366,-60.29
1301.381,-60.35
1301.396,-61.29
1301.411,-61.44
1301.427,-61.08
1301.442,-60.69
1301.457,-60.97
1301.471,-61.72
1301.486,-60.81
1301.501,-60.36
1301.516,-61.14
1301.531,-61.31
1301.547,-61.04
1301.562,-60.71
1301.577,-61.28
1301.592,-62.31
1301.606,-62.05
1301.621,-60.86
1301.636,-61.49
1301.651,-62.15
1301.667,-62.22
1301.682,-61.88
1301.697,-61.96
1301.712,-62.64
1301.727,-63.7
1301.742,-63.25
1301.756,-62.78
1301.771,-63.09
1301.786,-62.99
1301.802,-62.54
1301.817,-62.47
1301.832,-63.01
1301.847,-64.41
1301.862,-63.78
1301.877,-62.67
1301.891,-62.18
1301.906,-62.88
1301.922,-62.6
1301.937,-62.32
1301.952,-62.55
1301.967,-62.63
1301.982,-63.64
1301.997,-62.21
1302.012,-61.84
1302.027,-61.95
1302.042,-62.19
1302.057,-61.96
1302.072,-61.4
1302.087,-62.02
1302.102,-61.85
1302.117,-62.13
1302.132,-62.03
1302.147,-61.59
1302.162,-62.32
1302.177,-62.53
1302.192,-62.12
1302.207,-61.95
1302.222,-62.94
1302.237,-64.24
1302.252,-64.37
1302.267,-63.37
1302.282,-63.49
1302.297,-65.04
1302.312,-63.7
1302.327,-63.11
1302.342,-65.28
1302.357,-64.28
1302.372,-64.79
1302.387,-64.12
1302.402,-63.29
1302.417,-64.18
1302.432,-64.19
1302.447,-63.22
1302.462,-63.91
1302.477,-62.99
1302.492,-62.65
1302.507,-62.85
1302.522,-62.37
1302.537,-62.74
1302.552,-63.63
1302.567,-63.2
1302.582,-62.76
1302.597,-62.71
1302.612,-61.71
1302.627,-62.62
1302.642,-62.23
1302.657,-61.94
1302.672,-62.67
1302.687,-62.73
1302.702,-61.99
1302.717,-62.01
1302.732,-61.38
1302.747,-61.28
1302.762,-61.44
1302.777,-60.86
1302.792,-60.98
1302.807,-61.07
1302.822,-60.85
1302.837,-60.95
1302.852,-60.53
1302.867,-60.21
1302.882,-60.35
1302.897,-60.27
1302.912,-60.05
1302.927,-60.49
1302.942,-60.5
1302.957,-60.0
1302.972,-60.43
1302.987,-59.87
1303.002,-59.85
1303.017,-60.61
1303.032,-60.23
1303.047,-60.44
1303.062,-60.46
1303.077,-60.25
1303.092,-59.99
1303.107,-60.33
1303.122,-59.97
1303.137,-60.53
1303.152,-60.56
1303.167,-60.66
1303.182,-60.46
1303.197,-60.54
1303.212,-60.55
1303.227,-60.62
1303.242,-59.84
1303.257,-59.93
1303.272,-60.87
1303.287,-60.85
1303.302,-60.59
1303.317,-60.81
1303.332,-60.77
1303.347,-60.47
1303.362,-60.38
1303.377,-59.98
1303.392,-60.59
1303.407,-61.16
1303.422,-60.94
1303.437,-60.66
1303.452,-60.62
1303.467,-60.77
1303.482,-60.69
1303.497,-60.68
1303.512,-60.9
1303.527,-61.75
1303.542,-60.9
1303.557,-60.91
1303.572,-60.76
1303.587,-61.0
1303.602,-61.04
1303.617,-61.1
1303.632,-60.82
1303.647,-61.53
1303.662,-61.57
1303.677,-60.72
1303.692,-60.92
1303.707,-60.79
1303.722,-60.94
1303.737,-60.76
1303.752,-60.79
1303.767,-61.14
1303.782,-61.77
1303.797,-60.78
1303.812,-60.72
1303.827,-61.85
1303.842,-61.59
1303.857,-61.57
1303.872,-61.37
1303.887,-61.65
1303.902,-62.96
1303.917,-62.5
1303.932,-61.46
1303.947,-61.92
1303.962,-63.4
1303.977,-62.04
1303.992,-61.65
1304.007,-61.72
1304.022,-61.72
1304.037,-61.66
1304.052,-60.71
1304.067,-60.68
1304.082,-61.62
1304.097,-61.28
1304.112,-60.59
1304.127,-61.13
1304.142,-61.55
1304.157,-62.06
1304.172,-61.1
1304.187,-60.97
1304.202,-61.97
1304.217,-62.41
1304.232,-61.07
1304.247,-61.23
1304.262,-62.28
1304.277,-61.56
1304.292,-60.52
1304.307,-60.15
1304.322,-60.26
1304.337,-60.97
1304.352,-60.48
1304.367,-60.23
1304.382,-60.48
1304.397,-61.01
1304.412,-60.27
1304.427,-59.44
1304.442,-60.06
1304.457,-60.49
1304.472,-60.39
1304.487,-59.83
1304.502,-60.12
1304.517,-60.8
1304.532,-60.33
1304.547,-60.23
1304.562,-59.98
1304.577,-60.77
1304.592,-60.74
1304.607,-60.26
1304.622,-60.05
1304.637,-60.49
1304.652,-60.81
1304.667,-60.08
1304.682,-60.02
1304.697,-60.44
1304.712,-61.05
1304.727,-60.24
1304.742,-59.98
1304.757,-60.12
1304.772,-60.42
1304.787,-60.22
1304.802,-60.17
1304.817,-60.63
1304.832,-60.98
1304.847,-60.47
1304.862,-59.78
1304.877,-60.21
1304.892,-60.47
1304.907,-59.57
1304.922,-59.28
1304.937,-59.33
1304.952,-59.75
1304.967,-59.34
1304.982,-59.07
1304.997,-59.22
1305.012,-60.4
1305.027,-60.1
1305.042,-59.55
1305.057,-59.71
1305.072,-60.0
1305.087,-60.2
1305.102,-60.05
1305.117,-60.05
1305.132,-60.42
1305.147,-60.48
1305.162,-59.8
1305.177,-59.63
1305.192,-60.31
1305.207,-60.02
1305.222,-59.68
1305.237,-59.65
1305.252,-59.77
1305.267,-59.92
1305.282,-59.66
1305.297,-59.64
1305.312,-60.04
1305.327,-60.55
1305.342,-59.84
1305.357,-59.62
1305.372,-59.49
1305.387,-60.05
1305.402,-59.93
1305.417,-59.66
1305.432,-60.21
1305.447,-60.45
1305.462,-60.29
1305.477,-59.75
1305.492,-60.2
1305.507,-60.87
1305.522,-60.91
1305.537,-60.37
1305.552,-60.21
1305.567,-60.66
1305.582,-60.52
1305.597,-60.22
1305.612,-60.02
1305.627,-60.68
1305.642,-60.66
1305.657,-60.63
1305.672,-60.31
1305.687,-60.83
1305.702,-61.09
1305.717,-60.53
1305.732,-60.58
1305.747,-61.03
1305.762,-61.86
1305.777,-62.16
1305.792,-61.25
1305.807,-61.34
1305.822,-61.58
1305.837,-61.01
1305.852,-60.86
1305.867,-61.22
1305.882,-61.58
1305.897,-61.05
1305.912,-61.8
1305.927,-61.53
1305.942,-62.0
1305.957,-62.8
1305.972,-61.71
1305.987,-62.02
1306.002,-63.04
1306.017,-62.09
1306.032,-61.5
1306.047,-62.04
1306.062,-61.95
1306.077,-62.33
1306.092,-62.42
1306.107,-61.9
1306.122,-62.33
1306.137,-62.69
1306.152,-61.98
1306.167,-62.95
1306.182,-62.27
1306.197,-61.66
1306.212,-61.97
1306.227,-61.53
1306.242,-61.64
1306.257,-62.15
1306.272,-62.16
1306.287,-61.69
1306.302,-62.47
1306.317,-62.06
1306.332,-61.59
1306.347,-62.45
1306.362,-61.96
1306.377,-62.3
1306.392,-62.57
1306.407,-62.44
1306.422,-62.31
1306.437,-62.22
1306.452,-61.05
1306.467,-61.68
1306.482,-62.04
1306.497,-61.46
1306.512,-60.77
1306.527,-60.68
1306.542,-60.63
1306.557,-60.69
1306.572,-60.4
1306.587,-59.88
1306.602,-60.49
1306.617,-60.67
1306.632,-59.97
1306.647,-60.25
1306.662,-60.23
1306.677,-60.39
1306.692,-60.0
1306.707,-59.78
1306.722,-59.84
1306.737,-60.56
1306.752,-60.28
1306.767,-59.84
1306.782,-59.76
1306.797,-60.11
1306.812,-60.0
1306.827,-59.84
1306.842,-59.95
1306.857,-60.07
1306.872,-60.47
1306.887,-59.67
1306.902,-59.83
1306.917,-60.15
1306.932,-60.12
1306.947,-60.15
1306.962,-59.88
1306.977,-60.29
1306.992,-60.41
1307.007,-59.89
1307.022,-59.35
1307.037,-59.88
1307.052,-59.93
1307.067,-59.81
1307.082,-60.1
1307.097,-59.79
1307.112,-59.57
1307.127,-59.61
1307.142,-59.53
1307.157,-59.73
1307.172,-59.44
1307.187,-59.73
1307.202,-59.54
1307.217,-59.63
1307.232,-59.87
1307.247,-59.8
1307.262,-59.9
1307.277,-59.96
1307.292,-60.02
1307.307,-59.65
1307.322,-59.73
1307.337,-59.97
1307.352,-59.87
1307.367,-59.81
1307.382,-59.97
1307.397,-60.17
1307.412,-60.02
1307.427,-59.76
1307.442,-60.06
1307.457,-61.05
1307.472,-60.69
1307.487,-60.72
1307.502,-60.76
1307.517,-61.29
1307.532,-61.49
1307.547,-61.22
1307.562,-61.22
1307.577,-61.81
1307.592,-63.21
1307.607,-62.21
1307.622,-61.53
1307.637,-63.39
1307.652,-64.25
1307.667,-63.11
1307.682,-62.26
1307.697,-63.33
1307.712,-63.9
1307.727,-64.55
1307.742,-62.55
1307.757,-62.55
1307.772,-64.2
1307.787,-63.57
1307.802,-62.26
1307.817,-62.67
1307.832,-63.33
1307.847,-63.63
1307.862,-63.47
1307.877,-62.4
1307.892,-63.61
1307.907,-65.16
1307.922,-62.9
1307.937,-63.1
1307.952,-65.43
1307.967,-64.71
1307.982,-63.15
1307.997,-62.65
1308.012,-62.99
1308.027,-65.77
1308.042,-63.99
1308.057,-62.61
1308.072,-63.93
1308.087,-63.83
1308.102,-62.55
1308.117,-62.69
1308.132,-64.27
1308.147,-63.94
1308.162,-62.9
1308.177,-61.92
1308.192,-62.08
1308.207,-63.95
1308.222,-62.79
1308.237,-61.96
1308.252,-62.8
1308.267,-63.57
1308.282,-62.02
1308.297,-61.63
1308.312,-62.63
1308.327,-62.72
1308.342,-62.39
1308.357,-61.32
1308.372,-61.52
1308.387,-62.38
1308.402,-61.68
1308.417,-60.59
1308.432,-61.52
1308.447,-62.04
1308.462,-61.05
1308.477,-60.65
1308.492,-60.87
1308.507,-60.84
1308.522,-60.56
1308.537,-59.75
1308.552,-59.82
1308.567,-60.68
1308.582,-60.43
1308.597,-59.62
1308.612,-60.15
1308.627,-60.64
1308.642,-59.82
1308.657,-59.38
1308.672,-59.6
1308.687,-60.3
1308.702,-60.3
1308.717,-59.74
1308.732,-59.63
1308.747,-60.18
1308.762,-60.25
1308.777,-59.48
1308.792,-59.7
1308.807,-60.13
1308.822,-59.78
1308.837,-59.46
1308.852,-59.1
1308.867,-59.41
1308.882,-59.7
1308.897,-59.38
1308.912,-59.14
1308.927,-59.65
1308.942,-59.79
1308.957,-59.04
1308.972,-59.17
1308.987,-59.28
1309.002,-59.84
1309.017,-59.65
1309.032,-59.02
1309.047,-59.44
1309.062,-60.16
1309.077,-59.54
1309.092,-59.33
1309.107,-60.03
1309.122,-60.19
1309.137,-59.76
1309.152,-59.35
1309.167,-59.53
1309.182,-60.39
1309.198,-60.05
1309.212,-59.22
1309.227,-59.64
1309.242,-60.32
1309.257,-59.76
1309.272,-59.32
1309.287,-59.43
1309.302,-60.19
1309.318,-59.76
1309.333,-59.44
1309.347,-59.59
1309.362,-60.56
1309.377,-60.59
1309.392,-59.97
1309.407,-60.19
1309.422,-61.2
1309.438,-61.15
1309.453,-60.91
1309.468,-60.94
1309.483,-61.25
1309.497,-61.55
1309.512,-61.38
1309.527,-61.34
1309.542,-61.95
1309.557,-63.22
1309.573,-61.63
1309.588,-61.46
1309.603,-61.37
1309.618,-61.13
1309.632,-61.17
1309.647,-60.92
1309.662,-60.89
1309.677,-61.26
1309.693,-60.46
1309.708,-59.9
1309.723,-60.61
1309.738,-60.99
1309.753,-60.12
1309.768,-59.94
1309.782,-60.14
1309.797,-60.22
1309.813,-60.19
1309.828,-60.12
1309.843,-60.51
1309.858,-61.38
1309.873,-60.93
1309.888,-60.22
1309.903,-60.6
1309.917,-61.56
1309.932,-60.72
1309.948,-59.94
1309.963,-60.14
1309.978,-60.13
1309.993,-60.84
1310.008,-60.01
1310.023,-59.93
1310.038,-60.28
1310.053,-60.4
1310.068,-59.62
1310.083,-59.76
1310.098,-60.51
1310.113,-60.35
1310.128,-60.75
1310.143,-60.32
1310.158,-60.54
1310.173,-61.46
1310.188,-60.58
1310.203,-60.35
1310.218,-61.12
1310.233,-61.68
1310.248,-60.5
1310.263,-60.34
1310.278,-61.12
1310.293,-61.22
1310.308,-60.94
1310.323,-60.28
1310.338,-60.54
1310.353,-61.31
1310.368,-60.63
1310.383,-60.13
1310.398,-60.47
1310.413,-61.08
1310.428,-60.49
1310.443,-60.08
1310.458,-60.09
1310.473,-60.51
1310.488,-61.18
1310.503,-60.11
1310.518,-60.0
1310.533,-60.78
1310.548,-61.12
1310.563,-59.87
1310.578,-60.17
1310.593,-60.65
1310.608,-61.2
1310.623,-60.77
1310.638,-60.7
1310.653,-61.39
1310.668,-62.52
1310.683,-61.35
1310.698,-60.99
1310.713,-62.07
1310.728,-62.65
1310.743,-61.45
1310.758,-61.62
1310.773,-62.28
1310.788,-63.21
1310.803,-62.4
1310.818,-61.86
1310.833,-62.91
1310.848,-63.81
1310.863,-62.65
1310.878,-61.69
1310.893,-62.52
1310.908,-64.07
1310.923,-61.92
1310.938,-61.39
1310.953,-62.07
1310.968,-63.84
1310.983,-63.16
1310.998,-61.79
1311.013,-62.91
1311.028,-64.15
1311.043,-65.53
1311.058,-63.37
1311.073,-64.5
1311.088,-66.95
1311.103,-66.14
1311.118,-64.15
1311.133,-63.12
1311.148,-64.63
1311.163,-64.2
1311.178,-62.54
1311.193,-61.97
1311.208,-62.88
1311.223,-63.63
1311.238,-62.18
1311.253,-62.22
1311.268,-64.16
1311.283,-63.11
1311.298,-62.99
1311.313,-62.64
1311.328,-64.56
1311.343,-64.76
1311.358,-63.45
1311.373,-62.53
1311.388,-63.34
1311.403,-64.78
1311.418,-62.76
1311.433,-62.49
1311.448,-63.98
1311.463,-63.91
1311.478,-62.71
1311.493,-61.65
1311.508,-62.96
1311.523,-63.21
1311.538,-61.84
1311.553,-61.0
1311.568,-61.55
1311.583,-62.39
1311.598,-61.35
1311.613,-60.74
1311.628,-61.24
1311.643,-61.48
1311.658,-60.84
1311.673,-60.37
1311.688,-61.03
1311.703,-61.28
1311.718,-60.71
1311.733,-60.0
1311.748,-60.12
1311.763,-60.79
1311.778,-60.24
1311.793,-59.69
1311.808,-60.27
1311.823,-60.88
1311.838,-59.99
1311.853,-59.59
1311.868,-59.97
1311.883,-60.5
1311.898,-60.09
1311.913,-59.37
1311.928,-59.47
1311.943,-60.3
1311.958,-60.36
1311.973,-59.53
1311.988,-59.96
1312.003,-60.74
1312.018,-59.85
1312.033,-59.55
1312.048,-59.63
1312.063,-60.01
1312.078,-59.6
1312.093,-59.23
1312.108,-58.94
1312.123,-59.49
1312.138,-59.37
1312.153,-58.78
1312.168,-59.21
1312.183,-59.69
1312.198,-59.79
1312.213,-59.53
1312.228,-59.66
1312.243,-59.81
1312.258,-60.26
1312.273,-59.52
1312.288,-59.34
1312.303,-60.1
1312.318,-59.98
1312.333,-59.22
1312.348,-59.35
1312.363,-59.87
1312.378,-59.88
1312.393,-59.7
1312.408,-59.51
1312.423,-59.95
1312.438,-60.55
1312.453,-59.71
1312.468,-59.39
1312.483,-60.04
1312.498,-60.44
1312.513,-59.49
1312.528,-59.49
1312.543,-60.23
1312.558,-60.25
1312.573,-60.16
1312.588,-59.95
1312.603,-60.34
1312.618,-60.48
1312.633,-60.27
1312.648,-59.85
1312.663,-60.68
1312.678,-60.98
1312.693,-60.08
1312.708,-60.17
1312.723,-61.07
1312.738,-60.99
1312.753,-60.98
1312.768,-60.9
1312.783,-61.33
1312.798,-61.42
1312.813,-61.21
1312.828,-61.02
1312.843,-61.24
1312.858,-61.59
1312.873,-60.75
1312.888,-60.44
1312.903,-61.68
1312.918,-61.63
1312.933,-61.54
1312.948,-61.43
1312.963,-61.74
1312.978,-61.36
1312.993,-61.1
1313.008,-61.14
1313.023,-61.1
1313.038,-61.08
1313.053,-60.91
1313.068,-60.47
1313.083,-61.32
1313.098,-61.02
1313.113,-61.15
1313.128,-61.21
1313.143,-61.67
1313.158,-61.48
1313.173,-61.34
1313.188,-61.29
1313.203,-61.27
1313.218,-61.47
1313.233,-61.32
1313.248,-61.62
1313.263,-60.88
1313.278,-60.84
1313.293,-60.92
1313.308,-60.71
1313.323,-60.86
1313.338,-60.76
1313.353,-60.64
1313.368,-60.66
1313.383,-60.6
1313.398,-60.6
1313.413,-60.86
1313.428,-61.06
1313.443,-60.18
1313.458,-60.44
1313.473,-61.2
1313.488,-60.92
1313.503,-60.85
1313.518,-60.99
1313.533,-60.8
1313.548,-60.92
1313.563,-61.26
1313.578,-61.2
1313.593,-61.4
1313.608,-61.39
1313.623,-61.11
1313.638,-61.05
1313.653,-62.26
1313.668,-61.51
1313.683,-61.39
1313.698,-61.42
1313.713,-61.36
1313.728,-61.21
1313.743,-61.15
1313.758,-61.09
1313.773,-60.82
1313.788,-60.95
1313.803,-60.88
1313.818,-60.96
1313.833,-60.79
1313.848,-61.22
1313.863,-61.67
1313.878,-61.58
1313.893,-61.52
1313.908,-61.15
1313.923,-61.17
1313.938,-61.41
1313.953,-61.09
1313.968,-61.09
1313.983,-61.3
1313.998,-61.51
1314.013,-61.08
1314.028,-61.24
1314.043,-62.44
1314.058,-61.48
1314.073,-61.57
1314.088,-61.56
1314.103,-62.05
1314.118,-61.78
1314.133,-61.22
1314.148,-61.62
1314.163,-62.09
1314.178,-61.64
1314.193,-61.54
1314.208,-62.1
1314.223,-63.35
1314.238,-62.62
1314.253,-61.64
1314.268,-62.14
1314.283,-62.93
1314.298,-63.12
1314.313,-62.53
1314.328,-62.46
1314.343,-63.39
1314.358,-63.62
1314.373,-62.43
1314.388,-62.08
1314.403,-64.07
1314.418,-63.6
1314.433,-62.08
1314.448,-62.57
1314.463,-64.2
1314.478,-62.95
1314.493,-62.14
1314.508,-62.19
1314.523,-62.74
1314.538,-62.87
1314.553,-61.76
1314.568,-61.86
1314.583,-62.98
1314.598,-62.33
1314.613,-61.0
1314.628,-61.29
1314.643,-62.63
1314.658,-61.52
1314.673,-61.25
1314.688,-61.14
1314.703,-62.28
1314.718,-62.05
1314.733,-61.25
1314.748,-61.88
1314.763,-62.54
1314.778,-61.91
1314.793,-61.0
1314.808,-61.31
1314.823,-62.18
1314.838,-61.71
1314.853,-61.02
1314.868,-60.91
1314.883,-61.41
1314.898,-61.36
1314.913,-60.82
1314.928,-60.91
1314.943,-61.14
1314.958,-60.83
1314.973,-60.29
1314.988,-61.02
1315.003,-60.99
1315.018,-60.72
1315.033,-60.55
1315.048,-60.29
1315.063,-60.91
1315.078,-61.13
1315.093,-60.63
1315.108,-60.92
1315.123,-61.36
1315.138,-61.21
1315.153,-60.61
1315.168,-60.86
1315.183,-61.05
1315.198,-60.6
1315.213,-60.67
1315.228,-60.22
1315.243,-60.62
1315.258,-60.36
1315.273,-60.34
1315.288,-60.48
1315.303,-60.61
1315.318,-60.41
1315.333,-60.3
1315.348,-60.54
1315.363,-60.47
1315.378,-60.43
1315.393,-61.33
1315.408,-61.03
1315.423,-60.41
1315.438,-60.61
1315.453,-60.74
1315.468,-60.73
1315.483,-60.79
1315.498,-60.67
1315.513,-60.26
1315.528,-60.72
1315.543,-60.63
1315.558,-60.56
1315.573,-60.42
1315.588,-60.54
1315.603,-60.42
1315.618,-60.71
1315.633,-61.3
1315.648,-60.78
1315.663,-61.3
1315.678,-61.17
1315.693,-61.06
1315.708,-60.79
1315.723,-60.89
1315.738,-60.82
1315.753,-60.4
1315.768,-60.69
1315.783,-60.92
1315.798,-60.87
1315.813,-61.42
1315.828,-61.38
1315.843,-60.83
1315.858,-60.92
1315.873,-60.43
1315.888,-60.63
1315.903,-61.11
1315.918,-60.98
1315.933,-61.05
1315.948,-61.54
1315.963,-61.6
1315.978,-61.56
1315.993,-60.89
1316.008,-61.53
1316.023,-61.52
1316.038,-61.4
1316.053,-61.91
1316.068,-61.62
1316.083,-61.19
1316.098,-61.04
1316.113,-60.49
1316.128,-60.86
1316.143,-61.02
1316.158,-60.82
1316.173,-60.6
1316.188,-61.21
1316.203,-61.31
1316.218,-60.67
1316.233,-61.33
1316.248,-60.62
1316.263,-60.6
1316.278,-60.84
1316.293,-60.9
1316.308,-61.2
1316.323,-61.65
1316.338,-61.09
1316.353,-61.08
1316.368,-61.47
1316.383,-61.4
1316.398,-60.79
1316.413,-60.65
1316.428,-61.12
1316.443,-60.98
1316.458,-61.01
1316.473,-61.0
1316.488,-60.59
1316.503,-60.7
1316.518,-61.73
1316.533,-60.92
1316.548,-61.54
1316.563,-61.76
1316.578,-61.79
1316.593,-61.54
1316.608,-61.72
1316.623,-61.57
1316.638,-61.17
1316.653,-61.9
1316.668,-61.26
1316.683,-61.3
1316.698,-61.6
1316.713,-61.53
1316.728,-61.07
1316.743,-61.05
1316.758,-61.76
1316.773,-61.1
1316.788,-60.8
1316.803,-61.03
1316.818,-60.75
1316.833,-60.67
1316.848,-61.04
1316.863,-61.0
1316.878,-61.47
1316.893,-61.65
1316.908,-60.89
1316.923,-61.08
1316.938,-61.49
1316.953,-61.21
1316.968,-60.84
1316.983,-60.93
1316.998,-61.95
1317.013,-61.35
1317.028,-61.04
1317.043,-62.08
1317.058,-62.11
1317.073,-61.2
1317.088,-61.47
1317.103,-61.41
1317.118,-62.3
1317.133,-61.58
1317.148,-60.95
1317.163,-61.47
1317.178,-62.06
1317.193,-61.19
1317.208,-60.97
1317.224,-61.52
1317.238,-61.48
1317.253,-61.15
1317.268,-61.31
1317.283,-62.02
1317.298,-61.91
1317.313,-60.98
1317.328,-60.57
1317.344,-62.01
1317.359,-61.58
1317.373,-61.38
1317.388,-61.13
1317.403,-61.27
1317.418,-61.58
1317.433,-61.35
1317.448,-61.26
1317.464,-61.67
1317.479,-61.97
1317.494,-61.52
1317.509,-61.47
1317.523,-61.43
1317.538,-62.06
1317.553,-61.07
1317.568,-60.84
1317.583,-61.66
1317.599,-61.44
1317.614,-61.27
1317.629,-61.32
1317.644,-61.8
1317.658,-61.75
1317.673,-61.48
1317.688,-61.25
1317.703,-61.89
1317.719,-61.97
1317.734,-61.48
1317.749,-61.92
1317.764,-62.25
1317.779,-62.0
1317.794,-61.84
1317.808,-62.32
1317.823,-62.58
1317.839,-62.47
1317.854,-62.38
1317.869,-62.28
1317.884,-63.05
1317.899,-62.72
1317.914,-62.88
1317.929,-62.81
1317.944,-62.83
1317.958,-62.81
1317.974,-62.76
1317.989,-63.01
1318.004,-62.44
1318.019,-62.88
1318.034,-64.19
1318.049,-63.74
1318.064,-61.91
1318.079,-62.88
1318.094,-63.08
1318.109,-63.37
1318.124,-62.89
1318.139,-63.57
1318.154,-64.54
1318.169,-64.15
1318.184,-63.55
1318.199,-64.03
1318.214,-63.81
1318.229,-64.02
1318.244,-63.78
1318.259,-64.78
1318.274,-66.79
1318.289,-64.21
1318.304,-62.83
1318.319,-64.1
1318.334,-64.77
1318.349,-62.95
1318.364,-63.12
1318.379,-63.31
1318.394,-63.29
1318.409,-63.32
1318.424,-63.76
1318.439,-63.62
1318.454,-63.22
1318.469,-63.58
1318.484,-62.07
1318.499,-63.12
1318.514,-64.21
1318.529,-63.94
1318.544,-62.36
1318.559,-63.52
1318.574,-64.04
1318.589,-62.78
1318.604,-62.7
1318.619,-63.09
1318.634,-63.28
1318.649,-62.76
1318.664,-62.08
1318.679,-62.44
1318.694,-62.5
1318.709,-62.0
1318.724,-61.85
1318.739,-62.56
1318.754,-63.69
1318.769,-62.53
1318.784,-62.35
1318.799,-63.88
1318.814,-63.4
1318.829,-62.99
1318.844,-62.69
1318.859,-62.72
1318.874,-63.29
1318.889,-62.62
1318.904,-62.27
1318.919,-62.48
1318.934,-62.29
1318.949,-62.32
1318.964,-62.19
1318.979,-62.29
1318.994,-62.33
1319.009,-62.02
1319.024,-61.65
1319.039,-61.84
1319.054,-60.95
1319.069,-61.46
1319.084,-61.62
1319.099,-61.68
1319.114,-61.74
1319.129,-61.88
1319.144,-61.67
1319.159,-61.34
1319.174,-61.39
1319.189,-61.45
1319.204,-61.51
1319.219,-61.55
1319.234,-61.72
1319.249,-61.69
1319.264,-61.39
1319.279,-61.41
1319.294,-61.56
1319.309,-61.75
1319.324,-61.77
1319.339,-61.59
1319.354,-61.43
1319.369,-61.57
1319.384,-61.73
1319.399,-61.57
1319.414,-61.8
1319.429,-61.79
1319.444,-61.9
1319.459,-61.81
1319.474,-61.87
1319.489,-62.79
1319.504,-61.93
1319.519,-61.08
1319.534,-61.26
1319.549,-62.55
1319.564,-62.34
1319.579,-62.22
1319.594,-62.04
1319.609,-62.64
1319.624,-62.38
1319.639,-61.6
1319.654,-62.36
1319.669,-63.8
1319.684,-62.84
1319.699,-62.48
1319.714,-63.22
1319.729,-63.53
1319.744,-62.74
1319.759,-61.75
1319.774,-62.28
1319.789,-63.15
1319.804,-61.77
1319.819,-61.27
1319.834,-61.31
1319.849,-62.09
1319.864,-62.0
1319.879,-61.32
1319.894,-61.73
1319.909,-62.47
1319.924,-61.54
1319.939,-61.65
1319.954,-62.41
1319.969,-62.47
1319.984,-61.7
1319.999,-61.67
1320.014,-62.97
1320.029,-63.55
1320.044,-61.94
1320.059,-62.46
1320.074,-64.14
1320.089,-63.48
1320.104,-62.66
1320.119,-62.28
1320.134,-62.79
1320.149,-62.9
1320.164,-62.01
1320.179,-62.11
1320.194,-63.14
1320.209,-62.38
1320.224,-61.98
1320.239,-62.4
1320.254,-63.14
1320.269,-62.78
1320.284,-61.25
1320.299,-61.54
1320.314,-63.28
1320.329,-62.31
1320.344,-61.59
1320.359,-62.38
1320.374,-63.65
1320.389,-62.95
1320.404,-62.49
1320.419,-62.8
1320.434,-62.83
1320.449,-62.2
1320.464,-61.81
1320.479,-62.21
1320.494,-62.54
1320.509,-61.94
1320.524,-62.33
1320.539,-62.83
1320.554,-62.97
1320.569,-61.7
1320.584,-61.33
1320.599,-62.54
1320.614,-62.66
1320.629,-61.57
1320.644,-61.89
1320.659,-62.74
1320.674,-61.75
1320.689,-60.98
1320.704,-61.53
1320.719,-61.45
1320.734,-61.32
1320.749,-61.36
1320.764,-61.06
1320.779,-61.1
1320.794,-61.24
1320.809,-61.05
1320.824,-61.11
1320.839,-62.12
1320.854,-62.32
1320.869,-61.11
1320.884,-61.37
1320.899,-62.84
1320.914,-61.83
1320.929,-61.48
1320.944,-62.05
1320.959,-62.79
1320.974,-61.6
1320.989,-61.38
1321.004,-62.55
1321.019,-62.24
1321.034,-61.18
1321.049,-61.31
1321.064,-62.08
1321.079,-61.06
1321.094,-61.44
1321.109,-61.05
1321.124,-61.19
1321.139,-61.65
1321.154,-61.23
1321.169,-61.13
1321.184,-61.73
1321.199,-61.58
1321.214,-61.53
1321.229,-61.59
1321.244,-61.69
1321.259,-61.78
1321.274,-61.44
1321.289,-61.65
1321.304,-62.42
1321.319,-61.86
1321.334,-61.61
1321.349,-61.78
1321.364,-62.72
1321.379,-61.88
1321.394,-60.92
1321.409,-61.05
1321.424,-61.85
1321.439,-61.41
1321.454,-60.81
1321.469,-60.88
1321.484,-61.07
1321.499,-61.13
1321.514,-60.89
1321.529,-60.83
1321.544,-61.26
1321.559,-60.9
1321.574,-60.55
1321.589,-60.84
1321.604,-61.16
1321.619,-60.63
1321.634,-60.4
1321.649,-61.06
1321.664,-60.97
1321.679,-60.51
1321.694,-60.49
1321.709,-60.82
1321.724,-61.7
1321.739,-60.89
1321.754,-60.42
1321.769,-60.87
1321.784,-61.84
1321.799,-61.19
1321.814,-60.9
1321.829,-61.15
1321.844,-61.77
1321.859,-60.98
1321.874,-60.9
1321.889,-61.61
1321.904,-61.26
1321.919,-60.65
1321.934,-60.93
1321.949,-61.5
1321.964,-61.08
1321.979,-60.66
1321.994,-61.11
1322.009,-61.54
1322.024,-60.9
1322.039,-61.21
1322.054,-61.19
1322.069,-60.93
1322.084,-61.8
1322.099,-61.06
1322.114,-60.84
1322.129,-61.67
1322.144,-61.66
1322.159,-60.97
1322.174,-61.34
1322.189,-62.24
1322.204,-61.66
1322.219,-60.92
1322.234,-61.61
1322.249,-62.32
1322.264,-61.11
1322.279,-60.68
1322.294,-61.76
1322.309,-61.69
1322.324,-61.31
1322.339,-60.68
1322.354,-61.14
1322.369,-61.2
1322.384,-60.92
1322.399,-61.05
1322.414,-61.31
1322.429,-61.37
1322.444,-60.98
1322.459,-60.92
1322.474,-62.28
1322.489,-62.94
1322.504,-61.67
1322.519,-61.5
1322.534,-63.34
1322.549,-62.42
1322.564,-61.66
1322.579,-62.57
1322.594,-63.21
1322.609,-62.75
1322.624,-62.1
1322.639,-62.45
1322.654,-62.67
1322.669,-62.64
1322.684,-62.08
1322.699,-62.28
1322.714,-62.58
1322.729,-61.99
1322.744,-61.83
1322.759,-61.84
1322.774,-62.86
1322.789,-61.88
1322.804,-61.15
1322.819,-62.01
1322.834,-62.68
1322.849,-61.41
1322.864,-61.16
1322.879,-62.44
1322.894,-62.1
1322.909,-60.86
1322.924,-61.41
1322.939,-62.16
1322.954,-61.31
1322.969,-60.47
1322.984,-61.68
1322.999,-62.03
1323.014,-61.91
1323.029,-61.24
1323.044,-61.05
1323.059,-62.15
1323.074,-62.34
1323.089,-61.03
1323.104,-61.24
1323.119,-62.42
1323.134,-61.86
1323.149,-61.03
1323.164,-61.52
1323.179,-62.61
1323.194,-61.26
1323.209,-60.67
1323.224,-61.27
1323.239,-61.48
1323.254,-60.69
1323.269,-60.69
1323.284,-61.72
1323.299,-61.39
1323.314,-60.85
1323.329,-60.37
1323.344,-61.65
1323.359,-61.63
1323.374,-61.09
1323.389,-60.74
1323.404,-61.47
1323.419,-62.14
1323.434,-60.93
1323.449,-61.1
1323.464,-62.06
1323.479,-61.71
1323.494,-60.8
1323.509,-60.84
1323.524,-61.88
1323.539,-60.82
1323.554,-60.34
1323.569,-60.89
1323.584,-61.21
1323.599,-60.63
1323.614,-60.1
1323.629,-60.56
1323.644,-61.21
1323.659,-60.63
1323.674,-60.14
1323.689,-61.03
1323.704,-61.49
1323.719,-60.9
1323.734,-60.79
1323.749,-60.9
1323.764,-62.09
1323.779,-61.38
1323.794,-61.09
1323.809,-61.54
1323.824,-61.63
1323.839,-60.73
1323.854,-60.95
1323.869,-61.93
1323.884,-61.08
1323.899,-60.91
1323.914,-61.65
1323.929,-62.17
1323.944,-61.59
1323.959,-61.16
1323.974,-62.27
1323.989,-62.37
1324.004,-61.65
1324.019,-60.76
1324.034,-61.61
1324.049,-62.51
1324.064,-61.45
1324.079,-61.24
1324.094,-62.41
1324.109,-62.35
1324.124,-60.99
1324.139,-60.67
1324.154,-61.29
1324.169,-61.7
1324.184,-60.7
1324.199,-60.42
1324.214,-60.97
1324.229,-61.84
1324.244,-60.93
1324.259,-60.68
1324.274,-61.5
1324.289,-61.53
1324.304,-60.69
1324.319,-60.87
1324.334,-61.83
1324.349,-61.18
1324.364,-61.03
1324.379,-60.99
1324.394,-62.27
1324.409,-61.75
1324.424,-60.63
1324.439,-61.37
1324.454,-61.83
1324.469,-61.07
1324.484,-60.62
1324.499,-61.55
1324.514,-62.4
1324.529,-61.8
1324.544,-61.45
1324.559,-62.41
1324.574,-63.38
1324.589,-62.15
1324.604,-62.04
1324.619,-62.84
1324.634,-63.16
1324.649,-61.8
1324.664,-61.85
1324.679,-63.65
1324.694,-62.41
1324.709,-61.45
1324.724,-62.18
1324.739,-62.55
1324.754,-62.64
1324.769,-61.49
1324.784,-61.92
1324.799,-62.23
1324.814,-61.75
1324.829,-61.53
1324.844,-62.56
1324.859,-62.54
1324.874,-61.67
1324.889,-61.52
1324.904,-61.93
1324.919,-62.65
1324.934,-61.53
1324.949,-61.23
1324.964,-62.39
1324.979,-62.66
1324.994,-61.1
1325.009,-61.32
1325.024,-62.6
1325.039,-61.75
1325.054,-60.99
1325.069,-61.77
1325.084,-62.36
1325.099,-61.15
1325.114,-60.84
1325.129,-62.22
1325.144,-62.38
1325.159,-62.08
1325.174,-61.86
1325.189,-62.6
1325.204,-62.64
1325.219,-62.52
1325.234,-62.47
1325.25,-62.35
1325.264,-62.59
1325.279,-61.93
1325.294,-61.31
1325.309,-62.62
1325.324,-62.76
1325.339,-61.39
1325.354,-61.33
1325.37,-62.12
1325.385,-61.58
1325.4,-60.71
1325.414,-61.21
1325.429,-61.84
1325.444,-60.93
1325.459,-60.52
1325.474,-61.82
1325.49,-62.06
1325.505,-60.87
1325.52,-60.79
1325.535,-60.89
1325.549,-60.91
1325.564,-60.96
1325.579,-60.53
1325.594,-60.7
1325.609,-60.64
1325.625,-60.55
1325.64,-60.75
1325.655,-60.67
1325.67,-60.81
1325.685,-60.33
1325.699,-60.46
1325.714,-60.5
1325.729,-60.45
1325.745,-59.88
1325.76,-60.39
1325.775,-60.87
1325.79,-60.09
1325.805,-59.96
1325.82,-61.15
1325.834,-60.91
1325.849,-60.0
1325.865,-60.45
1325.88,-61.12
1325.895,-60.92
1325.91,-60.6
1325.925,-60.52
1325.94,-60.85
1325.955,-60.56
1325.97,-60.21
1325.984,-60.48
1326.0,-60.74
1326.015,-60.55
1326.03,-60.35
1326.045,-60.65
1326.06,-60.63
1326.075,-60.32
1326.09,-60.38
1326.105,-60.41
1326.12,-60.57
1326.135,-60.24
1326.15,-60.7
1326.165,-61.03
1326.18,-60.6
1326.195,-60.29
1326.21,-60.81
1326.225,-60.92
1326.24,-60.5
1326.255,-60.91
1326.27,-61.09
1326.285,-61.11
1326.3,-61.42
1326.315,-61.26
1326.33,-60.75
1326.345,-61.26
1326.36,-60.82
1326.375,-60.53
1326.39,-61.23
1326.405,-61.03
1326.42,-60.64
1326.435,-61.0
1326.45,-61.31
1326.465,-61.33
1326.48,-60.61
1326.495,-61.14
1326.51,-61.65
1326.525,-61.05
1326.54,-61.01
1326.555,-61.49
1326.57,-61.17
1326.585,-60.88
1326.6,-61.09
1326.615,-61.08
1326.63,-61.07
1326.645,-60.64
1326.66,-61.26
1326.675,-61.35
1326.69,-61.15
1326.705,-60.83
1326.72,-61.67
1326.735,-61.06
1326.75,-61.46
1326.765,-61.43
1326.78,-61.29
1326.795,-61.26
1326.81,-61.63
1326.825,-61.29
1326.84,-61.01
1326.855,-61.42
1326.87,-61.41
1326.885,-61.3
1326.9,-61.04
1326.915,-61.37
1326.93,-61.46
1326.945,-61.67
1326.96,-62.61
1326.975,-62.33
1326.99,-61.62
1327.005,-62.18
1327.02,-62.69
1327.035,-61.69
1327.05,-61.7
1327.065,-62.62
1327.08,-62.46
1327.095,-61.76
1327.11,-62.36
1327.125,-63.16
1327.14,-62.09
1327.155,-61.68
1327.17,-62.09
1327.185,-62.41
1327.2,-61.88
1327.215,-61.45
1327.23,-62.45
1327.245,-62.12
1327.26,-61.22
1327.275,-62.06
1327.29,-62.72
1327.305,-62.17
1327.32,-61.39
1327.335,-62.48
1327.35,-62.53
1327.365,-62.86
1327.38,-63.21
1327.395,-63.54
1327.41,-63.76
1327.425,-63.69
1327.44,-62.99
1327.455,-63.33
1327.47,-63.52
1327.485,-63.56
1327.5,-63.62
1327.515,-62.99
1327.53,-63.32
1327.545,-63.18
1327.56,-63.22
1327.575,-64.9
1327.59,-64.49
1327.605,-63.0
1327.62,-63.81
1327.635,-66.03
1327.65,-64.42
1327.665,-63.13
1327.68,-64.64
1327.695,-65.69
1327.71,-64.58
1327.725,-63.47
1327.74,-65.59
1327.755,-65.39
1327.77,-64.31
1327.785,-63.96
1327.8,-65.05
1327.815,-64.91
1327.83,-63.57
1327.845,-64.82
1327.86,-64.93
1327.875,-64.08
1327.89,-63.42
1327.905,-64.68
1327.92,-64.88
1327.935,-63.64
1327.95,-63.81
1327.965,-63.18
1327.98,-63.21
1327.995,-63.88
1328.01,-63.94
1328.025,-63.43
1328.04,-64.05
1328.055,-64.16
1328.07,-63.73
1328.085,-63.57
1328.1,-63.35
1328.115,-63.6
1328.13,-62.89
1328.145,-63.1
1328.16,-63.45
1328.175,-63.0
1328.19,-63.81
1328.205,-64.42
1328.22,-63.51
1328.235,-62.92
1328.25,-64.76
1328.265,-64.96
1328.28,-63.05
1328.295,-63.0
1328.31,-64.37
1328.325,-64.26
1328.34,-63.07
1328.355,-63.42
1328.37,-64.06
1328.385,-63.56
1328.4,-62.7
1328.415,-63.38
1328.43,-63.42
1328.445,-62.82
1328.46,-63.24
1328.475,-63.52
1328.49,-63.58
1328.505,-62.49
1328.52,-63.76
1328.535,-63.76
1328.55,-63.24
1328.565,-63.38
1328.58,-62.64
1328.595,-62.59
1328.61,-62.55
1328.625,-63.45
1328.64,-62.58
1328.655,-62.25
1328.67,-62.75
1328.685,-62.88
1328.7,-62.02
1328.715,-62.04
1328.73,-63.18
1328.745,-63.12
1328.76,-62.64
1328.775,-62.7
1328.79,-63.65
1328.805,-63.9
1328.82,-64.25
1328.835,-63.84
1328.85,-63.27
1328.865,-64.64
1328.88,-65.04
1328.895,-63.97
1328.91,-63.94
1328.925,-64.82
1328.94,-65.27
1328.955,-64.02
1328.97,-64.23
1328.985,-65.08
1329.0,-64.86
1329.015,-63.44
1329.03,-64.45
1329.045,-63.84
1329.06,-63.19
1329.075,-63.29
1329.09,-63.84
1329.105,-63.45
1329.12,-62.77
1329.135,-63.53
1329.15,-64.04
1329.165,-63.73
1329.18,-63.59
1329.195,-63.72
1329.21,-63.08
1329.225,-63.83
1329.24,-65.34
1329.255,-63.71
1329.27,-63.21
1329.285,-64.02
1329.3,-64.48
1329.315,-63.17
1329.33,-62.51
1329.345,-63.35
1329.36,-63.79
1329.375,-62.76
1329.39,-62.57
1329.405,-62.16
1329.42,-61.98
1329.435,-62.5
1329.45,-62.66
1329.465,-61.79
1329.48,-61.9
1329.495,-62.08
1329.51,-61.91
1329.525,-61.43
1329.54,-62.18
1329.555,-62.17
1329.57,-61.62
1329.585,-62.03
1329.6,-62.03
1329.615,-62.08
1329.63,-61.47
1329.645,-61.73
1329.66,-61.86
1329.675,-61.61
1329.69,-61.22
1329.705,-61.65
1329.72,-61.86
1329.735,-61.32
1329.75,-61.26
1329.765,-61.4
1329.78,-61.56
1329.795,-61.15
1329.81,-61.16
1329.825,-60.46
1329.84,-60.77
1329.855,-61.37
1329.87,-60.62
1329.885,-60.33
1329.9,-60.91
1329.915,-61.05
1329.93,-60.4
1329.945,-60.18
1329.96,-60.54
1329.975,-60.63
1329.99,-60.06
1330.005,-59.96
1330.02,-60.33
1330.035,-59.97
1330.05,-59.89
1330.065,-60.15
1330.08,-60.3
1330.095,-59.82
1330.11,-59.99
1330.125,-60.6
1330.14,-60.26
1330.155,-60.02
1330.17,-60.19
1330.185,-60.52
1330.2,-60.07
1330.215,-59.95
1330.23,-60.03
1330.245,-60.1
1330.26,-59.67
1330.275,-59.62
1330.29,-60.06
1330.305,-59.92
1330.32,-59.61
1330.335,-59.9
1330.35,-60.79
1330.365,-59.94
1330.38,-59.71
1330.395,-60.25
1330.41,-61.16
1330.425,-60.61
1330.44,-60.1
1330.455,-60.67
1330.47,-61.29
1330.485,-60.44
1330.5,-60.55
1330.515,-61.68
1330.53,-61.36
1330.545,-60.15
1330.56,-60.36
1330.575,-61.12
1330.59,-60.04
1330.605,-59.85
1330.62,-60.67
1330.635,-61.3
1330.65,-60.93
1330.665,-60.46
1330.68,-60.68
1330.695,-61.35
1330.71,-61.07
1330.725,-60.76
1330.74,-60.95
1330.755,-60.99
1330.77,-60.75
1330.785,-60.79
1330.8,-61.08
1330.815,-60.94
1330.83,-60.72
1330.845,-61.02
1330.86,-61.23
1330.875,-60.81
1330.89,-60.79
1330.905,-60.86
1330.92,-60.87
1330.935,-60.65
1330.95,-60.77
1330.965,-61.3
1330.98,-60.86
1330.995,-60.58
1331.01,-60.96
1331.025,-61.74
1331.04,-61.31
1331.055,-61.21
1331.07,-61.87
1331.085,-61.83
1331.1,-61.21
1331.115,-61.46
1331.13,-61.7
1331.145,-61.45
1331.16,-61.06
1331.175,-61.16
1331.19,-61.55
1331.205,-61.01
1331.22,-60.72
1331.235,-61.3
1331.25,-60.74
1331.265,-61.34
1331.28,-61.6
1331.295,-61.17
1331.31,-61.19
1331.325,-61.49
1331.34,-61.93
1331.355,-60.97
1331.37,-61.56
1331.385,-61.98
1331.4,-61.5
1331.415,-61.28
1331.43,-62.16
1331.445,-62.11
1331.46,-61.32
1331.475,-61.53
1331.49,-61.78
1331.505,-61.66
1331.52,-61.01
1331.535,-61.43
1331.55,-61.63
1331.565,-61.79
1331.58,-61.61
1331.595,-62.66
1331.61,-62.52
1331.625,-61.88
1331.64,-62.32
1331.655,-61.41
1331.67,-61.55
1331.685,-62.3
1331.7,-62.38
1331.715,-61.34
1331.73,-61.51
1331.745,-62.38
1331.76,-61.94
1331.775,-61.16
1331.79,-61.56
1331.805,-62.32
1331.82,-61.31
1331.835,-61.14
1331.85,-61.74
1331.865,-61.69
1331.88,-61.07
1331.895,-61.17
1331.91,-62.14
1331.925,-61.91
1331.94,-61.38
1331.955,-61.51
1331.97,-62.04
1331.985,-61.7
1332.0,-61.85
1332.015,-62.35
1332.03,-62.01
1332.045,-61.45
1332.06,-61.35
1332.075,-61.74
1332.09,-61.46
1332.105,-61.31
1332.12,-61.51
1332.135,-61.97
1332.15,-61.63
1332.165,-61.34
1332.18,-62.32
1332.195,-62.21
1332.21,-61.68
1332.225,-61.75
1332.24,-62.03
1332.255,-62.24
1332.27,-61.17
1332.285,-61.09
1332.3,-61.96
1332.315,-61.67
1332.33,-60.91
1332.345,-61.1
1332.36,-62.41
1332.375,-61.16
1332.39,-60.54
1332.405,-60.67
1332.42,-60.39
1332.435,-60.61
1332.45,-60.42
1332.465,-60.73
1332.48,-60.37
1332.495,-60.76
1332.51,-60.68
1332.525,-60.63
1332.54,-60.59
1332.555,-60.62
1332.57,-60.54
1332.585,-60.63
1332.6,-60.69
1332.615,-60.58
1332.63,-60.44
1332.645,-60.37
1332.66,-60.49
1332.675,-60.45
1332.69,-60.29
1332.705,-60.06
1332.72,-60.18
1332.735,-60.12
1332.75,-60.1
1332.765,-60.07
1332.78,-60.09
1332.795,-60.25
1332.81,-59.94
1332.825,-60.01
1332.84,-59.9
1332.855,-60.16
1332.87,-60.17
1332.885,-60.23
1332.9,-60.38
1332.915,-60.33
1332.93,-60.24
1332.945,-60.14
1332.96,-60.22
1332.975,-60.29
1332.99,-60.13
1333.005,-59.97
1333.02,-59.98
1333.035,-60.07
1333.05,-60.06
1333.065,-60.09
1333.08,-60.05
1333.095,-60.28
1333.11,-60.15
1333.125,-60.33
1333.141,-60.31
1333.155,-60.14
1333.17,-60.32
1333.185,-60.19
1333.2,-59.97
1333.215,-60.09
1333.23,-60.38
1333.245,-60.05
1333.26,-60.34
1333.276,-60.52
1333.29,-60.57
1333.305,-60.27
1333.32,-60.36
1333.335,-60.27
1333.35,-60.33
1333.365,-59.93
1333.38,-60.2
1333.396,-60.23
1333.411,-60.45
1333.426,-61.13
1333.44,-60.31
1333.455,-60.11
1333.47,-60.29
1333.485,-60.97
1333.5,-60.08
1333.516,-60.06
1333.531,-60.91
1333.546,-60.66
1333.561,-60.22
1333.575,-60.47
1333.59,-61.2
1333.605,-60.54
1333.62,-60.16
1333.635,-60.86
1333.651,-60.86
1333.666,-60.24
1333.681,-60.14
1333.696,-61.05
1333.711,-61.09
1333.725,-60.46
1333.74,-60.61
1333.755,-61.4
1333.771,-60.8
1333.786,-60.57
1333.801,-60.83
1333.816,-61.41
1333.831,-60.86
1333.846,-61.24
1333.86,-61.84
1333.875,-61.34
1333.891,-60.79
1333.906,-61.02
1333.921,-61.45
1333.936,-60.81
1333.951,-60.41
1333.966,-61.07
1333.981,-61.1
1333.996,-60.28
1334.01,-60.41
1334.026,-61.32
1334.041,-60.94
1334.056,-60.29
1334.071,-60.93
1334.086,-61.85
1334.101,-60.7
1334.116,-60.7
1334.131,-61.26
1334.146,-61.22
1334.161,-60.44
1334.176,-60.6
1334.191,-61.32
1334.206,-60.96
1334.221,-60.29
1334.236,-60.34
1334.251,-61.14
1334.266,-60.32
1334.281,-59.89
1334.296,-60.48
1334.311,-61.15
1334.326,-60.44
1334.341,-60.25
1334.356,-61.06
1334.371,-61.14
1334.386,-60.31
1334.401,-60.65
1334.416,-61.5
1334.431,-61.33
1334.446,-60.68
1334.461,-61.03
1334.476,-62.28
1334.491,-61.04
1334.506,-60.74
1334.521,-61.59
1334.536,-61.52
1334.551,-60.47
1334.566,-60.67
1334.581,-61.84
1334.596,-60.94
1334.611,-60.16
1334.626,-60.22
1334.641,-61.1
1334.656,-60.38
1334.671,-60.35
1334.686,-61.36
1334.701,-61.29
1334.716,-60.44
1334.731,-60.78
1334.746,-61.97
1334.761,-61.02
1334.776,-60.44
1334.791,-61.23
1334.806,-61.77
1334.821,-60.67
1334.836,-60.61
1334.851,-61.65
1334.866,-61.33
1334.881,-60.39
1334.896,-60.76
1334.911,-61.93
1334.926,-61.16
1334.941,-60.8
1334.956,-61.59
1334.971,-62.12
1334.986,-61.08
1335.001,-61.42
1335.016,-62.98
1335.031,-62.03
1335.046,-61.13
1335.061,-61.68
1335.076,-62.64
1335.091,-61.41
1335.106,-60.98
1335.121,-61.95
1335.136,-61.98
1335.151,-60.84
1335.166,-61.18
1335.181,-62.42
1335.196,-61.82
1335.211,-61.18
1335.226,-61.79
1335.241,-63.02
1335.256,-61.86
1335.271,-61.66
1335.286,-62.91
1335.301,-62.96
1335.316,-61.42
1335.331,-61.53
1335.346,-63.85
1335.361,-62.84
1335.376,-61.78
1335.391,-62.91
1335.406,-63.8
1335.421,-62.13
1335.436,-62.54
1335.451,-62.96
1335.466,-62.74
1335.481,-62.05
1335.496,-62.65
1335.511,-63.22
1335.526,-62.34
1335.541,-61.93
1335.556,-63.0
1335.571,-63.45
1335.586,-62.2
1335.601,-62.82
1335.616,-63.17
1335.631,-63.81
1335.646,-62.72
1335.661,-63.93
1335.676,-63.6
1335.691,-62.94
1335.706,-62.85
1335.721,-63.41
1335.736,-63.02
1335.751,-62.11
1335.766,-62.8
1335.781,-63.53
1335.796,-62.49
1335.811,-62.08
1335.826,-63.51
1335.841,-63.59
1335.856,-62.37
1335.871,-62.18
1335.886,-63.38
1335.901,-63.3
1335.916,-62.13
1335.931,-63.01
1335.946,-63.25
1335.961,-62.44
1335.976,-62.2
1335.991,-63.3
1336.006,-63.21
1336.021,-61.89
1336.036,-62.44
1336.051,-63.61
1336.066,-63.11
1336.081,-61.53
1336.096,-62.01
1336.111,-63.31
1336.126,-61.78
1336.141,-61.66
1336.156,-63.2
1336.171,-62.93
1336.186,-61.51
1336.201,-61.5
1336.216,-62.42
1336.231,-62.28
1336.246,-61.24
1336.261,-61.84
1336.276,-62.48
1336.291,-61.63
1336.306,-61.31
1336.321,-62.41
1336.336,-62.29
1336.351,-60.77
1336.366,-61.16
1336.381,-61.82
1336.396,-60.93
1336.411,-60.56
1336.426,-61.71
1336.441,-61.08
1336.456,-60.64
1336.471,-60.99
1336.486,-61.66
1336.501,-60.91
1336.516,-60.64
1336.531,-61.51
1336.546,-62.04
1336.561,-61.14
1336.576,-61.06
1336.591,-62.02
1336.606,-61.61
1336.621,-61.1
1336.636,-61.14
1336.651,-62.18
1336.666,-61.18
1336.681,-60.9
1336.696,-61.21
1336.711,-61.43
1336.726,-60.87
1336.741,-60.9
1336.756,-61.6
1336.771,-61.68
1336.786,-60.86
1336.801,-61.32
1336.816,-62.3
1336.831,-61.39
1336.846,-60.94
1336.861,-61.37
1336.876,-61.98
1336.891,-61.04
1336.906,-60.84
1336.921,-61.84
1336.936,-61.41
1336.951,-60.56
1336.966,-61.05
1336.981,-61.68
1336.996,-61.14
1337.011,-60.73
1337.026,-61.2
1337.041,-61.5
1337.056,-60.56
1337.071,-60.63
1337.086,-61.4
1337.101,-61.78
1337.116,-60.71
1337.131,-61.36
1337.146,-61.8
1337.161,-61.27
1337.176,-61.09
1337.191,-61.54
1337.206,-62.59
1337.221,-61.74
1337.236,-61.31
1337.251,-61.89
1337.266,-62.03
1337.281,-61.3
1337.296,-61.42
1337.311,-62.2
1337.326,-61.55
1337.341,-61.13
1337.356,-61.65
1337.371,-62.25
1337.386,-61.8
1337.401,-61.77
1337.416,-62.32
1337.431,-61.91
1337.446,-61.25
1337.461,-61.55
1337.476,-62.72
1337.491,-62.11
1337.506,-61.47
1337.521,-61.98
1337.536,-62.53
1337.551,-61.43
1337.566,-61.28
1337.581,-61.97
1337.596,-61.74
1337.611,-60.71
1337.626,-60.98
1337.641,-62.48
1337.656,-61.72
1337.671,-60.87
1337.686,-61.91
1337.701,-62.9
1337.716,-61.6
1337.731,-61.24
1337.746,-62.38
1337.761,-62.33
1337.776,-61.19
1337.791,-61.54
1337.806,-62.9
1337.821,-62.11
1337.836,-61.37
1337.851,-62.17
1337.866,-62.72
1337.881,-61.32
1337.896,-61.11
1337.911,-62.68
1337.926,-61.85
1337.941,-60.89
1337.956,-61.59
1337.971,-62.86
1337.986,-61.79
1338.001,-61.26
1338.016,-62.66
1338.031,-63.32
1338.046,-61.78
1338.061,-61.77
1338.076,-62.98
1338.091,-62.69
1338.106,-61.37
1338.121,-61.98
1338.136,-62.64
1338.151,-61.77
1338.166,-61.97
1338.181,-62.16
1338.196,-61.98
1338.211,-61.42
1338.226,-61.81
1338.241,-62.21
1338.256,-61.69
1338.271,-61.6
1338.286,-62.12
1338.301,-62.09
1338.316,-61.69
1338.331,-62.1
1338.346,-62.61
1338.361,-62.07
1338.376,-61.71
1338.391,-61.83
1338.406,-61.95
1338.421,-61.3
1338.436,-61.54
1338.451,-62.14
1338.466,-61.6
1338.481,-60.91
1338.496,-61.12
1338.511,-61.49
1338.526,-61.1
1338.541,-60.77
1338.556,-61.21
1338.571,-61.19
1338.586,-61.05
1338.601,-61.17
1338.616,-61.9
1338.631,-61.65
1338.646,-60.97
1338.661,-61.32
1338.676,-61.85
1338.691,-61.18
1338.706,-60.55
1338.721,-61.15
1338.736,-61.51
1338.751,-61.06
1338.766,-61.23
1338.781,-61.31
1338.796,-61.2
1338.811,-60.58
1338.826,-60.87
1338.841,-61.04
1338.856,-60.84
1338.871,-60.76
1338.886,-61.47
1338.901,-61.46
1338.916,-60.94
1338.931,-61.59
1338.946,-61.7
1338.961,-61.65
1338.976,-60.72
1338.991,-61.54
1339.006,-61.56
1339.021,-60.73
1339.036,-60.57
1339.051,-61.11
1339.066,-60.92
1339.081,-60.32
1339.096,-60.84
1339.111,-61.2
1339.126,-61.04
1339.141,-61.26
1339.156,-61.04
1339.171,-60.55
1339.186,-60.96
1339.201,-61.83
1339.216,-61.21
1339.231,-60.9
1339.246,-61.47
1339.261,-61.96
1339.276,-61.43
1339.291,-60.98
1339.306,-62.29
1339.321,-61.95
1339.336,-61.0
1339.351,-61.28
1339.366,-62.4
1339.381,-61.69
1339.396,-61.26
1339.411,-62.07
1339.426,-62.39
1339.441,-61.69
1339.456,-61.24
1339.471,-62.49
1339.486,-62.74
1339.501,-61.53
1339.516,-61.43
1339.531,-62.7
1339.546,-62.19
1339.561,-61.39
1339.576,-62.62
1339.591,-63.07
1339.606,-62.07
1339.621,-61.51
1339.636,-62.87
1339.651,-62.6
1339.666,-61.37
1339.681,-61.49
1339.696,-62.63
1339.711,-62.15
1339.726,-61.5
1339.741,-62.45
1339.756,-62.27
1339.771,-61.28
1339.786,-61.04
1339.801,-62.18
1339.816,-62.39
1339.831,-61.41
1339.846,-61.86
1339.861,-62.82
1339.876,-62.33
1339.891,-62.32
1339.906,-63.0
1339.921,-62.61
1339.936,-61.81
1339.951,-62.7
1339.966,-62.63
1339.981,-62.52
1339.996,-62.49
1340.011,-62.66
1340.026,-62.48
1340.041,-62.55
1340.056,-62.49
1340.071,-62.56
1340.086,-62.74
1340.101,-62.5
1340.116,-62.63
1340.131,-62.88
1340.146,-61.54
1340.161,-62.57
1340.176,-63.19
1340.191,-61.91
1340.206,-61.75
1340.221,-62.8
1340.236,-62.42
1340.251,-61.34
1340.266,-61.82
1340.281,-62.13
1340.296,-61.63
1340.311,-60.75
1340.326,-61.42
1340.341,-61.72
1340.356,-60.93
1340.371,-60.98
1340.386,-61.93
1340.401,-61.41
1340.416,-60.82
1340.431,-61.35
1340.446,-62.15
1340.461,-61.33
1340.476,-60.77
1340.491,-61.55
1340.506,-61.77
1340.521,-61.55
1340.536,-61.08
1340.551,-62.1
1340.566,-61.74
1340.581,-61.89
1340.596,-61.44
1340.611,-61.2
1340.626,-61.41
1340.641,-61.22
1340.656,-60.99
1340.671,-61.35
1340.686,-61.61
1340.701,-61.17
1340.716,-61.06
1340.731,-61.34
1340.746,-61.2
1340.761,-61.07
1340.776,-60.86
1340.791,-61.54
1340.806,-61.56
1340.821,-60.96
1340.836,-60.98
1340.851,-61.36
1340.866,-60.74
1340.881,-60.55
1340.896,-60.17
1340.911,-60.58
1340.926,-60.66
1340.941,-60.37
1340.956,-60.27
1340.971,-60.62
1340.986,-61.01
1341.001,-61.05
1341.016,-60.52
1341.031,-60.71
1341.046,-61.04
1341.061,-61.17
1341.076,-61.02
1341.091,-61.0
1341.106,-61.37
1341.121,-61.51
1341.136,-61.06
1341.151,-61.3
1341.167,-61.53
1341.181,-60.93
1341.196,-61.11
1341.211,-61.12
1341.226,-61.1
1341.241,-60.93
1341.256,-60.95
1341.271,-61.2
1341.286,-60.97
1341.302,-60.98
1341.316,-61.31
1341.331,-61.73
1341.346,-61.46
1341.361,-61.63
1341.376,-61.71
1341.391,-61.41
1341.406,-61.64
1341.422,-62.72
1341.437,-62.18
1341.452,-60.86
1341.466,-61.57
1341.481,-62.52
1341.496,-61.14
1341.511,-61.05
1341.526,-61.95
1341.542,-62.04
1341.557,-60.71
1341.572,-61.56
1341.587,-61.32
1341.601,-60.84
1341.616,-61.13
1341.631,-62.12
1341.646,-61.51
1341.661,-61.42
1341.677,-61.76
1341.692,-62.13
1341.707,-61.27
1341.722,-61.49
1341.737,-62.41
1341.751,-62.18
1341.766,-61.2
1341.781,-61.76
1341.797,-62.63
1341.812,-61.61
1341.827,-61.21
1341.842,-61.94
1341.857,-62.19
1341.872,-61.66
1341.887,-61.7
1341.901,-62.7
1341.917,-61.62
1341.932,-61.17
1341.947,-61.71
1341.962,-62.18
1341.977,-61.35
1341.992,-61.35
1342.007,-61.1
1342.022,-61.44
1342.036,-61.49
1342.052,-61.09
1342.067,-60.62
1342.082,-60.16
1342.097,-60.8
1342.112,-60.98
1342.127,-60.09
1342.142,-60.01
1342.157,-60.68
1342.172,-60.35
1342.187,-60.03
1342.202,-60.2
1342.217,-60.93
1342.232,-60.12
1342.247,-59.94
1342.262,-60.4
1342.277,-60.48
1342.292,-59.95
1342.307,-60.25
1342.322,-60.9
1342.337,-60.35
1342.352,-59.92
1342.367,-60.14
1342.382,-60.45
1342.397,-59.81
1342.412,-59.69
1342.427,-59.36
1342.442,-59.65
1342.457,-59.72
1342.472,-59.46
1342.487,-59.4
1342.502,-59.9
1342.517,-59.8
1342.532,-59.19
1342.547,-59.63
1342.562,-59.79
1342.577,-59.33
1342.592,-59.16
1342.607,-59.77
1342.622,-59.89
1342.637,-59.31
1342.652,-59.31
1342.667,-59.73
1342.682,-59.7
1342.697,-59.74
1342.712,-59.65
1342.727,-59.68
1342.742,-59.77
1342.757,-59.4
1342.772,-59.58
1342.787,-59.76
1342.802,-59.71
1342.817,-59.55
1342.832,-59.71
1342.847,-59.92
1342.862,-59.77
1342.877,-59.63
1342.892,-59.79
1342.907,-59.76
1342.922,-59.78
1342.937,-59.77
1342.952,-59.97
1342.967,-60.0
1342.982,-60.03
1342.997,-59.8
1343.012,-59.63
1343.027,-59.88
1343.042,-59.7
1343.057,-59.72
1343.072,-60.08
1343.087,-60.75
1343.102,-60.71
1343.117,-60.58
1343.132,-60.43
1343.147,-60.64
1343.162,-60.95
1343.177,-60.74
1343.192,-60.87
1343.207,-61.16
1343.222,-61.09
1343.237,-60.99
1343.252,-60.98
1343.267,-61.19
1343.282,-61.09
1343.297,-60.93
1343.312,-60.86
1343.327,-61.16
1343.342,-60.93
1343.357,-61.01
1343.372,-61.08
1343.387,-61.25
1343.402,-61.55
1343.417,-61.52
1343.432,-61.79
1343.447,-61.9
1343.462,-61.65
1343.477,-62.05
1343.492,-62.56
1343.507,-62.06
1343.522,-62.4
1343.537,-64.4
1343.552,-62.75
1343.567,-61.94
1343.582,-63.11
1343.597,-63.88
1343.612,-62.0
1343.627,-61.69
1343.642,-62.89
1343.657,-62.65
1343.672,-61.64
1343.687,-62.06
1343.702,-61.98
1343.717,-61.72
1343.732,-61.9
1343.747,-62.37
1343.762,-62.09
1343.777,-61.87
1343.792,-62.43
1343.807,-62.72
1343.822,-62.16
1343.837,-62.1
1343.852,-62.21
1343.867,-62.26
1343.882,-61.63
1343.897,-61.85
1343.912,-61.95
1343.927,-61.55
1343.942,-61.99
1343.957,-63.4
1343.972,-61.89
1343.987,-61.34
1344.002,-62.38
1344.017,-63.37
1344.032,-61.46
1344.047,-61.5
1344.062,-62.93
1344.077,-61.79
1344.092,-61.02
1344.107,-61.41
1344.122,-61.24
1344.137,-60.86
1344.152,-61.41
1344.167,-61.65
1344.182,-61.06
1344.197,-60.71
1344.212,-61.1
1344.227,-61.14
1344.242,-60.74
1344.257,-60.79
1344.272,-61.3
1344.287,-61.1
1344.302,-60.68
1344.317,-61.05
1344.332,-61.12
1344.347,-60.64
1344.362,-60.26
1344.377,-61.07
1344.392,-60.38
1344.407,-60.07
1344.422,-60.94
1344.437,-61.2
1344.452,-60.16
1344.467,-60.23
1344.482,-61.14
1344.497,-60.31
1344.512,-60.03
1344.527,-60.32
1344.542,-59.9
1344.557,-59.56
1344.572,-59.92
1344.587,-60.57
1344.602,-60.04
1344.617,-60.08
1344.632,-60.64
1344.647,-60.64
1344.662,-60.06
1344.677,-60.38
1344.692,-61.02
1344.707,-60.52
1344.722,-60.28
1344.737,-60.73
1344.752,-60.78
1344.767,-60.36
1344.782,-60.37
1344.797,-61.06
1344.812,-59.89
1344.827,-59.8
1344.842,-60.92
1344.857,-60.91
1344.872,-59.9
1344.887,-60.2
1344.902,-61.27
1344.917,-60.6
1344.932,-60.32
1344.947,-60.6
1344.962,-60.44
1344.977,-60.34
1344.992,-60.43
1345.007,-60.81
1345.022,-60.46
1345.037,-60.42
1345.052,-60.59
1345.067,-60.65
1345.082,-60.64
1345.097,-60.77
1345.112,-61.1
1345.127,-60.79
1345.142,-60.66
1345.157,-60.77
1345.172,-60.6
1345.187,-60.56
1345.202,-60.59
1345.217,-61.56
1345.232,-60.29
1345.247,-60.13
1345.262,-61.26
1345.277,-61.11
1345.292,-60.35
1345.307,-60.56
1345.322,-61.59
1345.337,-61.02
1345.352,-60.47
1345.367,-61.12
1345.382,-61.24
1345.397,-60.95
1345.412,-60.97
1345.427,-60.76
1345.442,-60.67
1345.457,-60.37
1345.472,-60.75
1345.487,-60.5
1345.502,-60.67
1345.517,-60.51
1345.532,-60.79
1345.547,-60.89
1345.562,-60.82
1345.577,-60.96
1345.592,-60.89
1345.607,-60.47
1345.622,-61.2
1345.637,-61.8
1345.652,-60.62
1345.667,-60.73
1345.682,-61.46
1345.697,-61.11
1345.712,-60.36
1345.727,-60.54
1345.742,-61.18
1345.757,-60.72
1345.772,-60.3
1345.787,-61.44
1345.802,-61.11
1345.817,-61.03
1345.832,-61.14
1345.847,-61.03
1345.862,-60.86
1345.877,-60.91
1345.892,-61.97
1345.907,-60.72
1345.922,-60.6
1345.937,-61.13
1345.952,-61.59
1345.967,-60.41
1345.982,-60.62
1345.997,-61.6
1346.012,-61.29
1346.027,-60.38
1346.042,-60.67
1346.057,-61.61
1346.072,-60.76
1346.087,-60.43
1346.102,-60.74
1346.117,-60.73
1346.132,-60.25
1346.147,-60.48
1346.162,-61.51
1346.177,-60.78
1346.192,-61.01
1346.207,-61.88
1346.222,-60.82
1346.237,-61.04
1346.252,-62.37
1346.267,-61.52
1346.282,-60.79
1346.297,-61.25
1346.312,-62.25
1346.327,-61.36
1346.342,-60.65
1346.357,-61.39
1346.372,-62.08
1346.387,-60.73
1346.402,-60.99
1346.417,-62.15
1346.432,-62.2
1346.447,-61.26
1346.462,-61.77
1346.477,-62.86
1346.492,-61.78
1346.507,-62.32
1346.522,-63.0
1346.537,-61.99
1346.552,-61.61
1346.567,-62.76
1346.582,-63.23
1346.597,-61.72
1346.612,-62.69
1346.627,-62.71
1346.642,-61.1
1346.657,-61.42
1346.672,-62.76
1346.687,-62.3
1346.702,-61.54
1346.717,-62.23
1346.732,-63.6
1346.747,-62.3
1346.762,-61.75
1346.777,-63.22
1346.792,-63.03
1346.807,-61.68
1346.822,-62.06
1346.837,-64.39
1346.852,-62.98
1346.867,-62.14
1346.882,-63.34
1346.897,-62.83
1346.912,-62.59
1346.927,-64.23
1346.942,-63.7
1346.957,-62.34
1346.972,-63.21
1346.987,-64.34
1347.002,-62.95
1347.017,-61.83
1347.032,-62.99
1347.047,-64.02
1347.062,-62.51
1347.077,-62.66
1347.092,-64.26
1347.107,-63.77
1347.122,-62.9
1347.137,-63.54
1347.152,-65.41
1347.167,-63.01
1347.182,-63.23
1347.197,-63.01
1347.212,-62.53
1347.227,-62.12
1347.242,-62.41
1347.257,-62.67
1347.272,-61.99
1347.287,-62.43
1347.302,-62.29
1347.317,-62.44
1347.332,-61.59
1347.347,-62.89
1347.362,-63.18
1347.377,-61.7
1347.392,-62.4
1347.407,-64.17
1347.422,-62.82
1347.437,-61.61
1347.452,-62.58
1347.467,-64.19
1347.482,-62.04
1347.497,-62.46
1347.512,-62.75
1347.527,-62.42
1347.542,-62.39
1347.557,-62.69
1347.572,-62.77
1347.587,-62.03
1347.602,-62.55
1347.617,-62.85
1347.632,-62.62
1347.647,-62.74
1347.662,-64.07
1347.677,-62.63
1347.692,-62.12
1347.707,-62.86
1347.722,-63.44
1347.737,-62.15
1347.752,-62.05
1347.767,-63.19
1347.782,-62.95
1347.797,-61.37
1347.812,-61.55
1347.827,-62.75
1347.842,-61.55
1347.857,-60.84
1347.872,-62.34
1347.887,-61.77
1347.902,-60.57
1347.917,-61.41
1347.932,-61.67
1347.947,-61.28
1347.962,-61.44
1347.977,-61.73
1347.992,-61.9
1348.007,-61.51
1348.022,-61.58
1348.037,-61.85
1348.052,-61.43
1348.067,-61.31
1348.082,-61.41
1348.097,-60.52
1348.112,-60.5
1348.127,-61.36
1348.142,-61.41
1348.157,-60.35
1348.172,-60.55
1348.187,-61.54
1348.202,-61.14
1348.217,-60.54
1348.232,-61.22
1348.247,-62.26
1348.262,-60.79
1348.277,-60.68
1348.292,-61.42
1348.307,-61.84
1348.322,-61.51
1348.337,-62.93
1348.352,-62.01
1348.367,-61.15
1348.382,-62.09
1348.397,-62.69
1348.412,-61.45
1348.427,-61.34
1348.442,-62.71
1348.457,-62.07
1348.472,-60.73
1348.487,-61.56
1348.502,-62.39
1348.517,-61.06
1348.532,-60.84
1348.547,-61.88
1348.562,-62.24
1348.577,-61.26
1348.592,-62.1
1348.607,-61.59
1348.622,-61.18
1348.637,-61.45
1348.652,-61.94
1348.667,-60.76
1348.682,-60.88
1348.697,-61.85
1348.712,-61.22
1348.727,-60.57
1348.742,-60.87
1348.757,-61.42
1348.772,-60.73
1348.787,-60.22
1348.802,-61.3
1348.817,-61.64
1348.832,-60.49
1348.847,-60.67
1348.862,-61.12
1348.877,-60.21
1348.892,-60.61
1348.907,-61.65
1348.922,-61.13
1348.937,-60.31
1348.952,-60.73
1348.967,-60.87
1348.982,-60.65
1348.997,-60.08
1349.012,-60.56
1349.027,-60.64
1349.042,-60.19
1349.057,-60.64
1349.072,-60.71
1349.087,-60.46
1349.102,-60.66
1349.117,-61.66
1349.132,-60.91
1349.147,-60.45
1349.162,-61.17
1349.177,-61.07
1349.193,-60.56
1349.207,-61.21
1349.222,-61.4
1349.237,-60.96
1349.252,-60.34
1349.267,-61.26
1349.282,-61.43
1349.297,-60.62
1349.313,-60.8
1349.328,-60.85
1349.343,-59.83
1349.357,-59.93
1349.372,-60.9
1349.387,-60.77
1349.402,-60.04
1349.417,-60.4
1349.432,-61.06
1349.448,-60.27
1349.463,-60.92
1349.478,-61.16
1349.492,-60.63
1349.507,-60.25
1349.522,-61.15
1349.537,-61.32
1349.552,-60.53
1349.568,-60.49
1349.583,-61.19
1349.598,-60.42
1349.613,-60.48
1349.628,-61.12
1349.642,-60.62
1349.657,-60.02
1349.672,-60.4
1349.688,-61.18
1349.703,-60.08
1349.718,-60.32
1349.733,-61.27
1349.748,-60.86
1349.763,-60.48
1349.777,-61.13
1349.792,-61.87
1349.807,-60.85
1349.823,-60.58
1349.838,-62.14
1349.853,-61.39
1349.868,-61.43
1349.883,-62.28
1349.898,-62.27
1349.913,-61.37
1349.927,-62.35
1349.943,-62.27
1349.958,-61.47
1349.973,-61.62
1349.988,-62.69
1350.003,-62.37
1350.018,-61.53
1350.033,-62.59
1350.048,-63.73
1350.063,-62.11
1350.078,-61.78
1350.093,-62.86
1350.108,-63.37
1350.123,-62.01
1350.138,-62.65
1350.153,-63.91
1350.168,-62.2
1350.183,-63.57
1350.198,-63.75
1350.213,-61.86
1350.228,-62.11
1350.243,-63.16
1350.258,-63.13
1350.273,-61.95
1350.288,-62.4
1350.303,-63.7
1350.318,-62.42
1350.333,-61.72
1350.348,-63.38
1350.363,-63.69
1350.378,-62.34
1350.393,-62.67
1350.408,-62.7
1350.423,-62.7
1350.438,-62.51
1350.453,-63.11
1350.468,-61.55
1350.483,-61.5
1350.498,-62.78
1350.513,-62.42
1350.528,-61.16
1350.543,-61.45
1350.558,-62.45
1350.573,-61.88
1350.588,-61.04
1350.603,-61.61
1350.618,-62.23
1350.633,-61.53
1350.648,-62.07
1350.663,-61.95
1350.678,-62.07
1350.693,-62.06
1350.708,-63.13
1350.723,-62.9
1350.738,-61.87
1350.753,-62.91
1350.768,-63.04
1350.783,-62.05
1350.798,-61.62
1350.813,-62.25
1350.828,-62.14
1350.843,-60.87
1350.858,-61.51
1350.873,-61.84
1350.888,-61.13
1350.903,-60.24
1350.918,-61.32
1350.933,-61.07
1350.948,-60.8
1350.963,-61.81
1350.978,-61.99
1350.993,-60.82
1351.008,-61.44
1351.023,-62.26
1351.038,-61.38
1351.053,-60.65
1351.068,-61.12
1351.083,-61.7
1351.098,-61.02
1351.113,-60.9
1351.128,-61.86
1351.143,-61.25
1351.158,-60.28
1351.173,-61.26
1351.188,-61.29
1351.203,-60.61
1351.218,-60.7
1351.233,-61.25
1351.248,-60.41
1351.263,-60.84
1351.278,-61.92
1351.293,-61.58
1351.308,-60.6
1351.323,-61.36
1351.338,-62.32
1351.353,-60.97
1351.368,-60.74
1351.383,-61.62
1351.398,-60.95
1351.413,-60.93
1351.428,-61.06
1351.443,-61.24
1351.458,-60.79
1351.473,-60.74
1351.488,-61.26
1351.503,-61.14
1351.518,-60.8
1351.533,-62.18
1351.548,-61.79
1351.563,-60.73
1351.578,-61.13
1351.593,-62.59
1351.608,-61.42
1351.623,-60.92
1351.638,-62.3
1351.653,-61.79
1351.668,-61.48
1351.683,-61.83
1351.698,-61.82
1351.713,-60.63
1351.728,-61.35
1351.743,-62.35
1351.758,-61.11
1351.773,-60.67
1351.788,-61.43
1351.803,-61.75
1351.818,-60.79
1351.833,-61.12
1351.848,-62.5
1351.863,-61.6
1351.878,-60.84
1351.893,-61.42
1351.908,-61.74
1351.923,-61.39
1351.938,-61.47
1351.953,-61.51
1351.968,-60.94
1351.983,-60.67
1351.998,-61.7
1352.013,-60.93
1352.028,-60.19
1352.043,-60.74
1352.058,-61.15
1352.073,-60.66
1352.088,-61.04
1352.103,-60.83
1352.118,-60.9
1352.133,-61.03
1352.148,-61.18
1352.163,-61.14
1352.178,-60.81
1352.193,-60.93
1352.208,-61.05
1352.223,-61.24
1352.238,-61.29
1352.253,-61.91
1352.268,-61.15
1352.283,-60.99
1352.298,-60.46
1352.313,-60.56
1352.328,-60.63
1352.343,-60.69
1352.358,-60.59
1352.373,-60.58
1352.388,-61.08
1352.403,-60.77
1352.418,-60.75
1352.433,-61.0
1352.448,-61.24
1352.463,-60.63
1352.478,-61.51
1352.493,-61.86
1352.508,-60.8
1352.523,-61.34
1352.538,-61.39
1352.553,-60.98
1352.568,-60.97
1352.583,-61.57
1352.598,-60.81
1352.613,-60.31
1352.628,-60.55
1352.643,-60.8
1352.658,-60.1
1352.673,-60.17
1352.688,-60.87
1352.703,-60.07
1352.718,-60.38
1352.733,-60.61
1352.748,-60.08
1352.763,-59.8
1352.778,-60.27
1352.793,-60.89
1352.808,-60.56
1352.823,-60.34
1352.838,-60.58
1352.853,-60.54
1352.868,-60.51
1352.883,-60.66
1352.898,-60.72
1352.913,-60.84
1352.928,-60.7
1352.943,-60.87
1352.958,-60.75
1352.973,-60.65
1352.988,-60.91
1353.003,-60.82
1353.018,-60.75
1353.033,-60.99
1353.048,-61.22
1353.063,-61.24
1353.078,-61.29
1353.093,-60.51
1353.108,-61.52
1353.123,-61.63
1353.138,-61.49
1353.153,-61.4
1353.168,-61.4
1353.183,-61.57
1353.198,-61.57
1353.213,-61.35
1353.228,-61.59
1353.243,-61.41
1353.258,-61.67
1353.273,-61.88
1353.288,-61.19
1353.303,-62.09
1353.318,-62.65
1353.333,-62.18
1353.348,-61.58
1353.363,-61.8
1353.378,-62.08
1353.393,-61.64
1353.408,-61.76
1353.423,-61.56
1353.438,-61.77
1353.453,-61.81
1353.468,-62.09
1353.483,-61.31
1353.498,-61.04
1353.513,-62.07
1353.528,-61.58
1353.543,-60.77
1353.558,-61.06
1353.573,-61.79
1353.588,-61.38
1353.603,-61.75
1353.618,-62.27
1353.633,-62.26
1353.648,-61.77
1353.663,-62.59
1353.678,-62.49
1353.693,-61.79
1353.708,-62.89
1353.723,-63.85
1353.738,-62.44
1353.753,-61.78
1353.768,-62.15
1353.783,-62.04
1353.798,-61.81
1353.813,-61.59
1353.828,-61.53
1353.843,-61.65
1353.858,-61.95
1353.873,-61.5
1353.888,-61.47
1353.903,-61.6
1353.918,-62.38
1353.933,-62.47
1353.948,-62.55
1353.963,-62.73
1353.978,-62.46
1353.993,-62.82
1354.008,-62.76
1354.023,-62.32
1354.038,-62.43
1354.053,-62.91
1354.068,-62.13
1354.083,-61.79
1354.098,-62.27
1354.113,-62.22
1354.128,-61.99
1354.143,-61.87
1354.158,-61.8
1354.173,-61.25
1354.188,-62.05
1354.203,-62.13
1354.218,-61.59
1354.233,-61.36
1354.248,-61.49
1354.263,-61.29
1354.278,-61.07
1354.293,-61.06
1354.308,-60.9
1354.323,-60.32
1354.338,-60.74
1354.353,-61.3
1354.368,-61.06
1354.383,-60.94
1354.398,-60.82
1354.413,-60.92
1354.428,-60.64
1354.443,-60.95
1354.458,-60.83
1354.473,-60.72
1354.488,-60.75
1354.503,-60.85
1354.518,-60.1
1354.533,-60.23
1354.548,-61.04
1354.563,-60.74
1354.578,-60.38
1354.593,-60.67
1354.608,-60.67
1354.623,-60.35
1354.638,-60.53
1354.653,-60.74
1354.668,-60.35
1354.683,-60.13
1354.698,-61.01
1354.713,-60.2
1354.728,-59.57
1354.743,-59.89
1354.758,-60.66
1354.773,-60.3
1354.788,-60.61
1354.803,-60.65
1354.818,-60.3
1354.833,-60.28
1354.848,-60.76
1354.863,-60.63
1354.878,-60.46
1354.893,-61.33
1354.908,-61.23
1354.923,-60.56
1354.938,-60.84
1354.953,-60.93
1354.968,-60.27
1354.983,-60.31
1354.998,-60.54
1355.013,-60.43
1355.028,-60.22
1355.043,-60.33
1355.058,-59.89
1355.073,-59.43
1355.088,-59.71
1355.103,-60.28
1355.118,-59.88
1355.133,-59.8
1355.148,-59.73
1355.163,-59.82
1355.178,-60.5
1355.193,-60.09
1355.208,-59.4
1355.223,-59.79
1355.238,-60.36
1355.253,-60.58
1355.268,-60.49
1355.283,-60.2
1355.298,-60.41
1355.313,-60.8
1355.328,-60.98
1355.343,-60.67
1355.358,-60.23
1355.373,-60.74
1355.388,-60.91
1355.403,-60.89
1355.418,-60.59
1355.433,-61.31
1355.448,-61.39
1355.463,-61.6
1355.478,-61.05
1355.493,-61.15
1355.508,-61.42
1355.523,-62.17
1355.538,-62.26
1355.553,-61.41
1355.568,-61.75
1355.583,-61.94
1355.598,-61.45
1355.613,-60.94
1355.628,-60.52
1355.643,-60.7
1355.658,-61.14
1355.673,-60.99
1355.688,-61.26
1355.703,-60.51
1355.718,-61.17
1355.733,-61.39
1355.748,-61.17
1355.763,-60.95
1355.778,-61.49
1355.793,-61.36
1355.808,-60.84
1355.823,-60.68
1355.838,-60.85
1355.853,-61.13
1355.868,-61.09
1355.883,-60.64
1355.898,-60.13
1355.913,-60.05
1355.928,-60.49
1355.943,-60.36
1355.958,-59.67
1355.973,-60.37
1355.988,-60.63
1356.003,-60.74
1356.018,-60.7
1356.033,-60.5
1356.048,-60.83
1356.063,-61.22
1356.078,-61.42
1356.093,-61.28
1356.108,-60.98
1356.123,-61.48
1356.138,-61.26
1356.153,-61.36
1356.168,-60.88
1356.183,-59.96
1356.198,-60.21
1356.213,-61.3
1356.228,-60.64
1356.243,-60.26
1356.258,-60.23
1356.273,-60.22
1356.288,-60.34
1356.303,-60.3
1356.318,-60.17
1356.333,-60.24
1356.348,-60.32
1356.363,-60.61
1356.378,-59.97
1356.393,-59.98
1356.408,-60.35
1356.423,-60.6
1356.438,-59.91
1356.453,-59.91
1356.468,-59.58
1356.483,-59.84
1356.498,-59.74
1356.513,-59.66
1356.528,-59.74
1356.543,-59.66
1356.558,-59.84
1356.573,-60.09
1356.588,-59.76
1356.603,-60.07
1356.618,-60.3
1356.633,-60.95
1356.648,-60.88
1356.663,-60.36
1356.678,-60.34
1356.693,-60.62
1356.708,-60.58
1356.723,-60.43
1356.738,-61.01
1356.753,-61.11
1356.768,-61.3
1356.783,-61.03
1356.798,-60.83
1356.813,-61.4
1356.828,-61.86
1356.843,-61.85
1356.858,-61.63
1356.873,-61.18
1356.888,-62.0
1356.903,-61.86
1356.918,-61.94
1356.933,-61.48
1356.948,-61.33
1356.963,-62.02
1356.978,-61.68
1356.993,-61.29
1357.008,-60.86
1357.023,-60.61
1357.038,-61.19
1357.053,-61.31
1357.068,-60.73
1357.083,-61.19
1357.098,-61.71
1357.113,-61.54
1357.128,-61.37
1357.143,-61.08
1357.158,-60.88
1357.173,-61.0
1357.188,-61.98
1357.203,-61.68
1357.219,-60.65
1357.233,-61.48
1357.248,-61.83
1357.263,-61.64
1357.278,-60.99
1357.293,-61.76
1357.308,-61.82
1357.323,-61.81
1357.339,-61.85
1357.354,-61.78
1357.369,-61.67
1357.383,-62.32
1357.398,-62.23
1357.413,-61.63
1357.428,-61.34
1357.443,-62.33
1357.458,-62.44
1357.474,-61.72
1357.489,-61.77
1357.504,-61.67
1357.518,-61.64
1357.533,-61.83
1357.548,-61.73
1357.563,-61.82
1357.578,-60.99
1357.594,-61.59
1357.609,-61.67
1357.624,-61.11
1357.639,-60.91
1357.654,-60.81
1357.668,-61.25
1357.683,-61.58
1357.698,-61.1
1357.714,-61.25
1357.729,-61.17
1357.744,-61.07
1357.759,-60.93
1357.774,-60.41
1357.789,-60.59
1357.803,-60.58
1357.818,-60.57
1357.833,-60.77
1357.849,-60.67
1357.864,-60.77
1357.879,-60.82
1357.894,-60.88
1357.909,-60.81
1357.924,-60.63
1357.939,-60.82
1357.953,-61.73
1357.969,-61.24
1357.984,-61.43
1357.999,-61.31
1358.014,-61.48
1358.029,-61.46
1358.044,-61.58
1358.059,-61.3
1358.074,-60.98
1358.089,-60.67
1358.104,-60.88
1358.119,-60.95
1358.134,-60.77
1358.149,-61.11
1358.164,-61.12
1358.179,-61.06
1358.194,-61.24
1358.209,-61.51
1358.224,-61.59
1358.239,-61.05
1358.254,-61.35
1358.269,-61.19
1358.284,-62.09
1358.299,-61.19
1358.314,-61.19
1358.329,-61.0
1358.344,-60.93
1358.359,-61.09
1358.374,-60.85
1358.389,-60.63
1358.404,-61.04
1358.419,-60.97
1358.434,-61.94
1358.449,-61.68
1358.464,-61.13
1358.479,-61.62
1358.494,-61.78
1358.509,-62.22
1358.524,-62.65
1358.539,-61.81
1358.554,-62.14
1358.569,-61.83
1358.584,-61.64
1358.599,-61.61
1358.614,-61.16
1358.629,-61.75
1358.644,-61.82
1358.659,-62.22
1358.674,-61.89
1358.689,-61.22
1358.704,-61.83
1358.719,-62.06
1358.734,-61.59
1358.749,-61.16
1358.764,-61.09
1358.779,-61.57
1358.794,-61.77
1358.809,-62.13
1358.824,-61.69
1358.839,-61.26
1358.854,-61.67
1358.869,-61.34
1358.884,-61.0
1358.899,-60.63
1358.914,-60.46
1358.929,-60.92
1358.944,-61.34
1358.959,-60.52
1358.974,-60.66
1358.989,-60.35
1359.004,-60.87
1359.019,-60.84
1359.034,-60.77
1359.049,-60.69
1359.064,-60.16
1359.079,-60.94
1359.094,-61.33
1359.109,-60.47
1359.124,-60.51
1359.139,-60.76
1359.154,-60.6
1359.169,-60.62
1359.184,-60.49
1359.199,-60.2
1359.214,-60.24
1359.229,-60.4
1359.244,-61.21
1359.259,-60.2
1359.274,-60.53
1359.289,-60.57
1359.304,-60.55
1359.319,-60.53
1359.334,-60.73
1359.349,-61.1
1359.364,-60.84
1359.379,-61.71
1359.394,-62.25
1359.409,-61.09
1359.424,-61.89
1359.439,-61.64
1359.454,-60.88
1359.469,-60.57
1359.484,-60.84
1359.499,-61.21
1359.514,-60.79
1359.529,-60.68
1359.544,-61.3
1359.559,-60.53
1359.574,-60.33
1359.589,-61.36
1359.604,-60.68
1359.619,-60.77
1359.634,-61.14
1359.649,-61.31
1359.664,-60.74
1359.679,-61.02
1359.694,-61.77
1359.709,-60.83
1359.724,-60.25
1359.739,-60.89
1359.754,-60.97
1359.769,-60.81
1359.784,-61.18
1359.799,-60.81
1359.814,-60.55
1359.829,-60.59
1359.844,-60.38
1359.859,-59.74
1359.874,-59.76
1359.889,-60.64
1359.904,-60.8
1359.919,-60.61
1359.934,-60.6
1359.949,-60.71
1359.964,-60.48
1359.979,-60.5
1359.994,-60.75
1360.009,-59.84
1360.024,-60.05
1360.039,-60.65
1360.054,-60.33
1360.069,-60.22
1360.084,-60.05
1360.099,-60.35
1360.114,-60.26
1360.129,-60.5
1360.144,-60.36
1360.159,-60.55
1360.174,-60.58
1360.189,-61.57
1360.204,-61.7
1360.219,-60.79
1360.234,-61.21
1360.249,-61.33
1360.264,-61.43
1360.279,-61.22
1360.294,-61.08
1360.309,-61.35
1360.324,-61.15
1360.339,-62.3
1360.354,-61.18
1360.369,-60.64
1360.384,-60.7
1360.399,-60.63
1360.414,-60.55
1360.429,-60.43
1360.444,-60.57
1360.459,-60.59
1360.474,-60.78
1360.489,-62.15
1360.504,-61.14
1360.519,-60.49
1360.534,-61.16
1360.549,-61.14
1360.564,-61.16
1360.579,-61.32
1360.594,-61.54
1360.609,-61.87
1360.624,-62.12
1360.639,-62.93
1360.654,-61.63
1360.669,-61.38
1360.684,-62.11
1360.699,-61.81
1360.714,-61.58
1360.729,-61.98
1360.744,-62.83
1360.759,-61.75
1360.774,-62.33
1360.789,-63.11
1360.804,-61.93
1360.819,-61.34
1360.834,-63.21
1360.849,-63.55
1360.864,-62.86
1360.879,-64.2
1360.894,-63.1
1360.909,-61.97
1360.924,-63.4
1360.939,-64.26
1360.954,-62.3
1360.969,-62.23
1360.984,-64.04
1360.999,-62.89
1361.014,-63.03
1361.029,-63.48
1361.044,-62.17
1361.059,-61.75
1361.074,-63.14
1361.089,-63.33
1361.104,-61.91
1361.119,-62.19
1361.134,-64.02
1361.149,-63.36
1361.164,-63.4
1361.179,-63.83
1361.194,-62.41
1361.209,-61.87
1361.224,-63.03
1361.239,-62.97
1361.254,-61.42
1361.269,-61.89
1361.284,-62.64
1361.299,-62.79
1361.314,-62.48
1361.329,-62.6
1361.344,-61.79
1361.359,-62.17
1361.374,-63.6
1361.389,-62.57
1361.404,-61.48
1361.419,-62.62
1361.434,-62.44
1361.449,-62.53
1361.464,-62.31
1361.479,-62.26
1361.494,-61.31
1361.509,-61.78
1361.524,-62.28
1361.539,-61.35
1361.554,-60.78
1361.569,-60.53
1361.584,-60.92
1361.599,-60.96
1361.614,-60.92
1361.629,-60.64
1361.644,-60.02
1361.659,-60.7
1361.674,-61.09
1361.689,-60.62
1361.704,-60.61
1361.719,-60.46
1361.734,-60.91
1361.749,-61.04
1361.764,-60.97
1361.779,-60.42
1361.794,-60.17
1361.809,-60.93
1361.824,-60.97
1361.839,-61.0
1361.854,-60.68
1361.869,-60.75
1361.884,-60.22
1361.899,-60.97
1361.914,-61.22
1361.929,-60.49
1361.944,-60.68
1361.959,-61.02
1361.974,-61.49
1361.989,-61.29
1362.004,-61.41
1362.019,-61.2
1362.034,-61.33
1362.049,-62.59
1362.064,-62.14
1362.079,-61.24
1362.094,-62.05
1362.109,-61.7
1362.124,-61.97
1362.139,-61.42
1362.154,-61.13
1362.169,-60.33
1362.184,-60.35
1362.199,-60.94
1362.214,-60.78
1362.229,-60.27
1362.244,-60.21
1362.259,-60.53
1362.274,-60.72
1362.289,-60.65
1362.304,-60.4
1362.319,-59.81
1362.334,-60.69
1362.349,-60.81
1362.364,-60.09
1362.379,-60.15
1362.394,-60.09
1362.409,-60.38
1362.424,-60.18
1362.439,-60.46
1362.454,-59.85
1362.469,-59.54
1362.484,-60.21
1362.499,-60.12
1362.514,-60.19
1362.529,-60.03
1362.544,-60.13
1362.559,-60.27
1362.574,-61.1
1362.589,-61.02
1362.604,-60.45
1362.619,-60.28
1362.634,-60.91
1362.649,-60.94
1362.664,-60.71
1362.679,-60.41
1362.694,-60.3
1362.709,-60.22
1362.724,-60.9
1362.739,-60.73
1362.754,-59.85
1362.769,-60.26
1362.784,-61.05
1362.799,-61.34
1362.814,-60.89
1362.829,-61.25
1362.844,-60.24
1362.859,-60.27
1362.874,-60.98
1362.889,-61.05
1362.904,-60.55
1362.919,-61.01
1362.934,-61.2
1362.949,-60.57
1362.964,-61.06
1362.979,-61.12
1362.994,-60.16
1363.009,-59.94
1363.024,-60.85
1363.039,-60.26
1363.054,-59.67
1363.069,-59.94
1363.084,-60.13
1363.099,-59.61
1363.114,-60.57
1363.129,-60.46
1363.144,-59.88
1363.159,-60.51
1363.174,-61.24
1363.189,-60.53
1363.204,-60.87
1363.219,-60.78
1363.234,-60.76
1363.249,-61.31
1363.264,-62.17
1363.279,-61.06
1363.294,-60.66
1363.309,-61.55
1363.324,-61.88
1363.339,-61.41
1363.354,-61.57
1363.369,-61.71
1363.384,-60.95
1363.399,-61.69
1363.414,-62.82
1363.429,-61.54
1363.444,-61.33
1363.459,-62.74
1363.474,-62.1
1363.489,-61.19
1363.504,-63.32
1363.519,-62.13
1363.534,-61.31
1363.549,-62.08
1363.564,-63.05
1363.579,-61.58
1363.594,-61.24
1363.609,-61.67
1363.624,-61.19
1363.639,-60.94
1363.654,-61.63
1363.669,-60.68
1363.684,-60.47
1363.699,-61.85
1363.714,-62.03
1363.729,-60.67
1363.744,-61.57
1363.759,-61.75
1363.774,-60.94
1363.789,-61.31
1363.804,-61.73
1363.819,-60.7
1363.834,-60.72
1363.849,-61.87
1363.864,-61.64
1363.879,-61.12
1363.894,-61.85
1363.909,-61.56
1363.924,-61.17
1363.939,-61.64
1363.954,-61.96
1363.969,-60.99
1363.984,-60.84
1363.999,-61.87
1364.014,-61.65
1364.029,-61.71
1364.044,-61.94
1364.059,-61.94
1364.074,-62.23
1364.089,-63.74
1364.104,-63.19
1364.119,-61.99
1364.134,-62.76
1364.149,-62.44
1364.164,-62.22
1364.179,-62.28
1364.194,-62.8
1364.209,-61.65
1364.224,-62.02
1364.239,-63.32
1364.254,-62.46
1364.269,-61.4
1364.284,-62.2
1364.299,-62.17
1364.314,-61.53
1364.329,-62.45
1364.344,-61.73
1364.359,-60.58
1364.374,-61.32
1364.389,-62.24
1364.404,-61.57
1364.419,-61.44
1364.434,-61.99
1364.449,-61.69
1364.464,-60.96
1364.479,-62.01
1364.494,-62.68
1364.509,-61.01
1364.524,-61.24
1364.539,-62.08
1364.554,-61.7
1364.569,-61.64
1364.584,-61.87
1364.599,-62.13
1364.614,-62.25
1364.629,-63.39
1364.644,-62.71
1364.659,-61.67
1364.674,-62.53
1364.689,-62.42
1364.704,-61.84
1364.719,-62.15
1364.734,-62.53
1364.749,-61.41
1364.764,-61.91
1364.779,-63.01
1364.794,-61.97
1364.809,-61.63
1364.824,-61.7
1364.839,-61.51
1364.854,-61.29
1364.869,-61.72
1364.884,-61.29
1364.899,-60.9
1364.914,-61.09
1364.929,-60.79
1364.944,-60.83
1364.959,-61.14
1364.974,-61.06
1364.989,-61.27
1365.004,-61.61
1365.019,-62.04
1365.034,-61.69
1365.049,-62.0
1365.064,-61.81
1365.079,-61.83
1365.094,-61.36
1365.109,-61.65
1365.124,-61.58
1365.139,-60.86
1365.154,-61.05
1365.169,-60.99
1365.184,-60.86
1365.199,-61.09
1365.214,-61.06
1365.229,-60.8
1365.245,-60.66
1365.259,-60.77
1365.274,-61.31
1365.289,-61.63
1365.304,-61.54
1365.319,-61.51
1365.334,-61.15
1365.349,-61.27
1365.365,-61.44
1365.38,-60.97
1365.395,-60.07
1365.409,-59.95
1365.424,-60.04
1365.439,-60.0
1365.454,-59.97
1365.469,-60.2
1365.484,-60.21
1365.5,-59.99
1365.515,-60.39
1365.53,-60.57
1365.544,-59.84
1365.559,-60.13
1365.574,-60.21
1365.589,-60.08
1365.604,-59.86
1365.62,-60.02
1365.635,-59.33
1365.65,-59.45
1365.665,-60.28
1365.68,-59.87
1365.694,-59.88
1365.709,-59.98
1365.724,-59.78
1365.74,-59.66
1365.755,-60.35
1365.77,-60.3
1365.785,-59.5
1365.8,-59.71
1365.815,-59.85
1365.83,-59.81
1365.844,-59.95
1365.859,-60.11
1365.875,-59.36
1365.89,-59.28
1365.905,-59.65
1365.92,-59.79
1365.935,-59.85
1365.95,-59.63
1365.965,-59.73
1365.979,-59.66
1365.995,-60.12
1366.01,-59.56
1366.025,-59.19
1366.04,-59.08
1366.055,-59.25
1366.07,-59.4
1366.085,-59.22
1366.1,-59.42
1366.115,-59.14
1366.13,-59.13
1366.145,-59.59
1366.16,-59.86
1366.175,-59.92
1366.19,-59.8
1366.205,-60.1
1366.22,-59.92
1366.235,-60.77
1366.25,-60.52
1366.265,-60.0
1366.28,-59.77
1366.295,-59.83
1366.31,-59.91
1366.325,-59.74
1366.34,-60.08
1366.355,-59.48
1366.37,-59.61
1366.385,-60.22
1366.4,-60.38
1366.415,-60.71
1366.43,-60.62
1366.445,-60.9
1366.46,-60.6
1366.475,-61.53
1366.49,-61.13
1366.505,-60.58
1366.52,-60.55
1366.535,-60.67
1366.55,-60.73
1366.565,-60.31
1366.58,-60.34
1366.595,-59.84
1366.61,-60.12
1366.625,-60.55
1366.64,-60.68
1366.655,-60.59
1366.67,-60.1
1366.685,-60.39
1366.7,-60.37
1366.715,-61.32
1366.73,-60.78
1366.745,-60.47
1366.76,-60.66
1366.775,-60.74
1366.79,-60.52
1366.805,-60.9
1366.82,-60.45
1366.835,-60.0
1366.85,-60.24
1366.865,-60.38
1366.88,-60.29
1366.895,-60.55
1366.91,-60.56
1366.925,-60.5
1366.94,-60.89
1366.955,-61.93
1366.97,-60.73
1366.985,-60.71
1367.0,-60.59
1367.015,-60.82
1367.03,-60.9
1367.045,-60.99
1367.06,-60.27
1367.075,-59.88
1367.09,-60.66
1367.105,-60.5
1367.12,-59.99
1367.135,-60.14
1367.15,-60.37
1367.165,-60.11
1367.18,-60.36
1367.195,-61.17
1367.21,-60.13
1367.225,-60.18
1367.24,-60.41
1367.255,-60.26
1367.27,-60.39
1367.285,-60.68
1367.3,-60.06
1367.315,-59.75
1367.33,-60.5
1367.345,-60.41
1367.36,-60.32
1367.375,-60.57
1367.39,-60.8
1367.405,-60.73
1367.42,-61.13
1367.435,-61.78
1367.45,-60.56
1367.465,-60.86
1367.48,-60.7
1367.495,-60.42
1367.51,-60.71
1367.525,-60.78
1367.54,-60.19
1367.555,-59.73
1367.57,-60.65
1367.585,-60.79
1367.6,-60.69
1367.615,-60.82
1367.63,-60.98
1367.645,-60.53
1367.66,-61.04
1367.675,-61.99
1367.69,-60.89
1367.705,-61.09
1367.72,-61.02
1367.735,-60.48
1367.75,-61.09
1367.765,-61.44
1367.78,-60.47
1367.795,-60.5
1367.81,-61.15
1367.825,-61.15
1367.84,-61.22
1367.855,-62.4
1367.87,-61.47
1367.885,-61.19
1367.9,-62.07
1367.915,-62.53
1367.93,-62.08
1367.945,-61.59
1367.96,-61.11
1367.975,-60.58
1367.99,-61.28
1368.005,-61.9
1368.02,-60.95
1368.035,-60.63
1368.05,-61.15
1368.065,-60.61
1368.08,-61.21
1368.095,-61.72
1368.11,-60.91
1368.125,-60.99
1368.14,-61.86
1368.155,-61.69
1368.17,-60.95
1368.185,-61.82
1368.2,-60.84
1368.215,-60.31
1368.23,-61.2
1368.245,-61.34
1368.26,-60.77
1368.275,-60.39
1368.29,-60.68
1368.305,-60.32
1368.32,-60.67
1368.335,-61.19
1368.35,-60.01
1368.365,-60.08
1368.38,-60.87
1368.395,-59.84
1368.41,-59.57
1368.425,-60.23
1368.44,-59.44
1368.455,-59.26
1368.47,-60.07
1368.485,-60.22
1368.5,-59.82
1368.515,-60.6
1368.53,-60.7
1368.545,-60.41
1368.56,-61.29
1368.575,-61.7
1368.59,-60.82
1368.605,-60.63
1368.62,-61.05
1368.635,-59.99
1368.65,-60.42
1368.665,-60.95
1368.68,-59.93
1368.695,-59.89
1368.71,-60.68
1368.725,-60.29
1368.74,-60.35
1368.755,-61.25
1368.77,-60.62
1368.785,-60.26
1368.8,-61.04
1368.815,-61.26
1368.83,-60.55
1368.845,-60.66
1368.86,-60.52
1368.875,-60.03
1368.89,-60.44
1368.905,-61.09
1368.92,-60.36
1368.935,-59.69
1368.95,-60.17
1368.965,-60.52
1368.98,-60.71
1368.995,-61.24
1369.01,-60.67
1369.025,-60.27
1369.04,-60.83
1369.055,-61.1
1369.07,-61.39
1369.085,-61.1
1369.1,-60.79
1369.115,-60.49
1369.13,-60.9
1369.145,-61.28
1369.16,-60.51
1369.175,-60.73
1369.19,-60.77
1369.205,-61.14
1369.22,-61.39
1369.235,-61.93
1369.25,-60.88
1369.265,-60.57
1369.28,-61.21
1369.295,-61.57
1369.31,-61.6
1369.325,-61.57
1369.34,-60.68
1369.355,-60.77
1369.37,-61.54
1369.385,-61.52
1369.4,-61.34
1369.415,-61.75
1369.43,-61.24
1369.445,-61.42
1369.46,-61.75
1369.475,-62.26
1369.49,-61.15
1369.505,-60.77
1369.52,-60.34
1369.535,-60.42
1369.55,-60.37
1369.565,-60.98
1369.58,-60.23
1369.595,-60.07
1369.61,-60.46
1369.625,-60.81
1369.64,-60.72
1369.655,-60.84
1369.67,-60.36
1369.685,-60.39
1369.7,-60.81
1369.715,-61.13
1369.73,-60.52
1369.745,-60.25
1369.76,-60.11
1369.775,-59.59
1369.79,-59.94
1369.805,-60.36
1369.82,-59.58
1369.835,-59.54
1369.85,-60.02
1369.865,-59.94
1369.88,-60.0
1369.895,-61.06
1369.91,-60.06
1369.925,-59.78
1369.94,-60.48
1369.955,-61.27
1369.97,-60.22
1369.985,-60.31
1370.0,-60.09
