wavelength_axis,light_level
1250.0,-58.87
1250.015,-58.52
1250.03,-58.37
1250.045,-58.57
1250.06,-59.11
1250.075,-59.35
1250.09,-58.94
1250.105,-58.79
1250.12,-58.83
1250.135,-58.98
1250.15,-59.37
1250.165,-59.34
1250.18,-58.89
1250.195,-58.68
1250.21,-58.83
1250.225,-59.5
1250.24,-59.57
1250.255,-59.29
1250.27,-58.63
1250.285,-58.58
1250.3,-58.97
1250.315,-59.32
1250.33,-58.99
1250.345,-58.61
1250.36,-58.59
1250.375,-58.75
1250.39,-59.31
1250.405,-59.42
1250.42,-59.01
1250.435,-58.49
1250.45,-58.47
1250.465,-58.61
1250.48,-58.65
1250.495,-58.44
1250.51,-58.3
1250.525,-58.15
1250.54,-58.47
1250.555,-58.7
1250.57,-58.64
1250.585,-58.42
1250.6,-58.19
1250.615,-58.24
1250.63,-58.3
1250.645,-58.82
1250.66,-58.61
1250.675,-58.33
1250.69,-58.38
1250.705,-58.76
1250.72,-58.93
1250.735,-58.91
1250.75,-58.71
1250.765,-58.59
1250.78,-58.74
1250.795,-58.7
1250.81,-58.98
1250.825,-58.9
1250.84,-58.68
1250.855,-58.64
1250.87,-59.32
1250.885,-59.31
1250.9,-59.23
1250.915,-58.66
1250.93,-58.78
1250.945,-58.98
1250.96,-59.08
1250.975,-59.07
1250.99,-59.03
1251.005,-58.94
1251.02,-58.91
1251.035,-59.03
1251.05,-59.49
1251.065,-59.09
1251.08,-58.67
1251.095,-58.53
1251.11,-58.54
1251.125,-58.85
1251.14,-58.95
1251.155,-59.02
1251.17,-58.81
1251.185,-58.66
1251.2,-58.58
1251.215,-58.85
1251.23,-58.77
1251.245,-58.27
1251.26,-58.27
1251.275,-58.49
1251.29,-58.88
1251.305,-58.89
1251.32,-58.78
1251.335,-58.56
1251.35,-58.49
1251.365,-58.44
1251.38,-58.77
1251.395,-58.67
1251.41,-58.36
1251.425,-58.14
1251.44,-58.19
1251.455,-58.81
1251.47,-59.13
1251.485,-59.02
1251.5,-58.68
1251.515,-58.56
1251.53,-58.62
1251.545,-58.98
1251.56,-58.94
1251.575,-58.69
1251.59,-58.63
1251.605,-58.88
1251.62,-59.56
1251.635,-59.88
1251.65,-59.5
1251.665,-58.79
1251.68,-59.13
1251.695,-59.34
1251.71,-59.51
1251.725,-59.31
1251.74,-58.61
1251.755,-58.63
1251.77,-58.74
1251.785,-59.08
1251.8,-58.98
1251.815,-58.82
1251.83,-58.19
1251.845,-58.44
1251.86,-58.52
1251.875,-58.73
1251.89,-58.48
1251.905,-58.17
1251.92,-58.13
1251.935,-58.23
1251.95,-58.64
1251.965,-58.35
1251.98,-58.37
1251.995,-58.01
1252.01,-58.36
1252.025,-58.77
1252.04,-59.37
1252.055,-58.75
1252.07,-58.43
1252.085,-58.73
1252.1,-58.81
1252.115,-59.49
1252.13,-59.01
1252.145,-59.06
1252.16,-58.48
1252.175,-58.94
1252.19,-59.16
1252.205,-59.84
1252.22,-59.39
1252.235,-59.01
1252.25,-59.48
1252.265,-59.72
1252.28,-60.08
1252.295,-59.43
1252.31,-59.45
1252.325,-58.97
1252.34,-59.64
1252.355,-59.49
1252.37,-59.94
1252.385,-59.42
1252.4,-59.26
1252.415,-59.45
1252.43,-59.97
1252.445,-60.15
1252.46,-59.5
1252.475,-59.35
1252.49,-59.06
1252.505,-59.67
1252.52,-59.46
1252.535,-59.68
1252.55,-59.14
1252.565,-59.31
1252.58,-59.39
1252.595,-59.21
1252.61,-59.21
1252.625,-58.87
1252.64,-58.83
1252.655,-58.75
1252.67,-59.24
1252.685,-59.11
1252.7,-58.98
1252.715,-58.48
1252.73,-58.72
1252.745,-59.22
1252.76,-59.13
1252.775,-59.12
1252.79,-58.69
1252.805,-59.14
1252.82,-59.12
1252.835,-59.66
1252.85,-59.43
1252.865,-59.47
1252.88,-58.92
1252.895,-58.89
1252.91,-59.45
1252.925,-59.39
1252.94,-59.5
1252.955,-58.99
1252.97,-59.29
1252.985,-59.38
1253.0,-59.86
1253.015,-59.39
1253.03,-59.11
1253.045,-59.06
1253.06,-59.28
1253.075,-59.59
1253.09,-59.14
1253.105,-59.27
1253.12,-58.8
1253.135,-59.21
1253.15,-59.23
1253.165,-59.47
1253.18,-59.04
1253.195,-59.06
1253.21,-59.01
1253.225,-59.68
1253.24,-59.74
1253.255,-59.36
1253.271,-59.42
1253.285,-59.12
1253.3,-59.91
1253.315,-59.57
1253.33,-59.61
1253.345,-59.01
1253.36,-59.22
1253.375,-59.27
1253.391,-59.77
1253.406,-59.72
1253.421,-59.24
1253.435,-59.38
1253.45,-59.46
1253.465,-60.02
1253.48,-59.66
1253.495,-59.83
1253.51,-59.21
1253.526,-59.79
1253.541,-59.73
1253.556,-59.93
1253.571,-59.73
1253.585,-59.28
1253.6,-60.08
1253.615,-60.11
1253.63,-60.16
1253.646,-59.56
1253.661,-59.52
1253.676,-59.23
1253.691,-59.6
1253.706,-59.4
1253.72,-59.45
1253.735,-59.1
1253.75,-58.93
1253.766,-59.49
1253.781,-59.43
1253.796,-59.69
1253.811,-59.23
1253.826,-59.29
1253.841,-59.23
1253.856,-59.7
1253.87,-59.52
1253.885,-59.53
1253.901,-59.55
1253.916,-59.35
1253.931,-59.8
1253.946,-59.47
1253.961,-59.62
1253.976,-59.31
1253.991,-59.48
1254.005,-59.12
1254.021,-59.51
1254.036,-59.38
1254.051,-58.95
1254.066,-58.96
1254.081,-59.14
1254.096,-59.45
1254.111,-59.16
1254.126,-59.41
1254.141,-59.09
1254.156,-59.43
1254.171,-59.18
1254.186,-59.53
1254.201,-59.28
1254.216,-59.13
1254.231,-59.03
1254.246,-59.35
1254.261,-59.23
1254.276,-59.05
1254.291,-59.06
1254.306,-58.69
1254.321,-59.06
1254.336,-58.98
1254.351,-59.0
1254.366,-58.72
1254.381,-58.81
1254.396,-58.73
1254.411,-58.99
1254.426,-59.03
1254.441,-58.61
1254.456,-58.69
1254.471,-58.51
1254.486,-58.96
1254.501,-58.74
1254.516,-58.91
1254.531,-58.41
1254.546,-58.64
1254.561,-59.05
1254.576,-59.03
1254.591,-59.42
1254.606,-58.72
1254.621,-58.75
1254.636,-59.27
1254.651,-59.92
1254.666,-59.75
1254.681,-59.61
1254.696,-59.09
1254.711,-59.27
1254.726,-59.86
1254.741,-60.06
1254.756,-59.93
1254.771,-59.24
1254.786,-59.38
1254.801,-59.81
1254.816,-60.48
1254.831,-60.13
1254.846,-59.91
1254.861,-59.75
1254.876,-60.1
1254.891,-60.54
1254.906,-60.51
1254.921,-60.13
1254.936,-59.64
1254.951,-60.34
1254.966,-60.45
1254.981,-60.89
1254.996,-60.11
1255.011,-59.98
1255.026,-60.26
1255.041,-60.8
1255.056,-61.04
1255.071,-60.35
1255.086,-60.09
1255.101,-59.82
1255.116,-60.54
1255.131,-60.24
1255.146,-59.94
1255.161,-59.38
1255.176,-59.67
1255.191,-60.0
1255.206,-60.66
1255.221,-60.53
1255.236,-59.89
1255.251,-59.7
1255.266,-59.83
1255.281,-60.39
1255.296,-60.1
1255.311,-59.86
1255.326,-59.31
1255.341,-59.53
1255.356,-60.11
1255.371,-60.02
1255.386,-59.88
1255.401,-59.51
1255.416,-59.37
1255.431,-59.79
1255.446,-60.52
1255.461,-60.05
1255.476,-59.96
1255.491,-59.41
1255.506,-59.65
1255.521,-60.03
1255.536,-59.99
1255.551,-59.63
1255.566,-59.03
1255.581,-59.51
1255.596,-59.43
1255.611,-59.92
1255.626,-59.65
1255.641,-59.14
1255.656,-58.83
1255.671,-58.94
1255.686,-59.4
1255.701,-59.18
1255.716,-59.14
1255.731,-58.6
1255.746,-58.81
1255.761,-58.96
1255.776,-58.95
1255.791,-58.8
1255.806,-58.74
1255.821,-58.72
1255.836,-58.8
1255.851,-59.17
1255.866,-58.7
1255.881,-58.75
1255.896,-58.82
1255.911,-59.19
1255.926,-59.27
1255.941,-59.21
1255.956,-58.88
1255.971,-58.85
1255.986,-58.91
1256.001,-58.91
1256.016,-58.99
1256.031,-58.54
1256.046,-58.4
1256.061,-58.58
1256.076,-58.65
1256.091,-58.57
1256.106,-58.59
1256.121,-58.53
1256.136,-58.68
1256.151,-59.38
1256.166,-59.27
1256.181,-59.35
1256.196,-59.51
1256.211,-59.24
1256.226,-59.33
1256.241,-59.45
1256.256,-59.18
1256.271,-59.1
1256.286,-59.2
1256.301,-59.26
1256.316,-59.05
1256.331,-59.11
1256.346,-59.06
1256.361,-59.13
1256.376,-59.4
1256.391,-59.35
1256.406,-59.35
1256.421,-59.16
1256.436,-59.48
1256.451,-59.25
1256.466,-59.26
1256.481,-59.04
1256.496,-59.44
1256.511,-59.55
1256.526,-59.5
1256.541,-59.45
1256.556,-59.49
1256.571,-59.59
1256.586,-59.45
1256.601,-59.61
1256.616,-58.98
1256.631,-58.94
1256.646,-58.91
1256.661,-59.22
1256.676,-59.24
1256.691,-59.11
1256.706,-59.03
1256.721,-58.87
1256.736,-59.16
1256.751,-59.26
1256.766,-59.29
1256.781,-59.19
1256.796,-59.46
1256.811,-59.31
1256.826,-59.2
1256.841,-59.2
1256.856,-59.22
1256.871,-59.2
1256.886,-59.09
1256.901,-59.17
1256.916,-59.05
1256.931,-59.01
1256.946,-58.87
1256.961,-58.93
1256.976,-58.93
1256.991,-58.92
1257.006,-58.98
1257.021,-59.2
1257.036,-59.12
1257.051,-59.23
1257.066,-59.25
1257.081,-59.72
1257.096,-59.49
1257.111,-59.53
1257.126,-59.45
1257.141,-59.35
1257.156,-59.37
1257.171,-59.3
1257.186,-59.17
1257.201,-58.58
1257.216,-58.6
1257.231,-58.64
1257.246,-58.59
1257.261,-58.55
1257.276,-58.56
1257.291,-58.35
1257.306,-58.24
1257.321,-58.79
1257.336,-58.82
1257.351,-58.84
1257.366,-58.18
1257.381,-58.23
1257.396,-58.62
1257.411,-58.64
1257.426,-58.98
1257.441,-58.43
1257.456,-58.25
1257.471,-58.47
1257.486,-59.09
1257.501,-58.93
1257.516,-58.62
1257.531,-58.49
1257.546,-58.48
1257.561,-58.91
1257.576,-59.12
1257.591,-58.82
1257.606,-58.35
1257.621,-58.55
1257.636,-58.99
1257.651,-59.07
1257.666,-58.75
1257.681,-58.6
1257.696,-58.43
1257.711,-58.7
1257.726,-59.38
1257.741,-59.12
1257.756,-58.72
1257.771,-58.56
1257.786,-58.72
1257.801,-59.08
1257.816,-59.18
1257.831,-58.79
1257.846,-58.75
1257.861,-58.66
1257.876,-58.94
1257.891,-58.73
1257.906,-58.37
1257.921,-58.08
1257.936,-58.22
1257.951,-58.44
1257.966,-58.56
1257.981,-58.49
1257.996,-58.19
1258.011,-58.47
1258.026,-58.58
1258.041,-58.78
1258.056,-58.59
1258.071,-58.37
1258.086,-58.03
1258.101,-58.35
1258.116,-58.55
1258.131,-58.33
1258.146,-58.34
1258.161,-58.1
1258.176,-58.37
1258.191,-58.23
1258.206,-58.49
1258.221,-58.29
1258.236,-58.12
1258.251,-58.49
1258.266,-58.69
1258.281,-58.78
1258.296,-58.64
1258.311,-58.74
1258.326,-58.49
1258.341,-58.84
1258.356,-58.81
1258.371,-59.15
1258.386,-59.15
1258.401,-58.89
1258.416,-59.32
1258.431,-58.91
1258.446,-59.17
1258.461,-59.2
1258.476,-59.34
1258.491,-59.03
1258.506,-59.12
1258.521,-59.11
1258.536,-59.0
1258.551,-59.49
1258.566,-59.31
1258.581,-59.02
1258.596,-58.99
1258.611,-59.31
1258.626,-59.22
1258.641,-59.33
1258.656,-59.5
1258.671,-59.21
1258.686,-59.2
1258.701,-59.13
1258.716,-59.4
1258.731,-58.75
1258.746,-58.92
1258.761,-59.09
1258.776,-59.25
1258.791,-59.61
1258.806,-59.58
1258.821,-59.37
1258.836,-59.4
1258.851,-59.84
1258.866,-59.83
1258.881,-59.62
1258.896,-59.66
1258.911,-59.78
1258.926,-59.8
1258.941,-59.84
1258.956,-59.75
1258.971,-59.36
1258.986,-59.42
1259.001,-59.7
1259.016,-59.84
1259.031,-59.26
1259.046,-59.16
1259.061,-59.2
1259.076,-59.43
1259.091,-59.97
1259.106,-59.82
1259.121,-59.65
1259.136,-59.52
1259.151,-60.12
1259.166,-60.04
1259.181,-59.94
1259.196,-59.84
1259.211,-59.63
1259.226,-59.69
1259.241,-60.15
1259.256,-59.7
1259.271,-58.93
1259.286,-58.99
1259.301,-59.07
1259.316,-59.38
1259.331,-59.39
1259.346,-58.98
1259.361,-58.91
1259.376,-58.93
1259.391,-59.41
1259.406,-59.63
1259.421,-59.08
1259.436,-59.02
1259.451,-59.25
1259.466,-59.31
1259.481,-59.25
1259.496,-58.81
1259.511,-58.42
1259.526,-58.36
1259.541,-58.55
1259.556,-58.52
1259.571,-58.05
1259.586,-57.95
1259.601,-58.02
1259.616,-58.23
1259.631,-58.48
1259.646,-58.42
1259.661,-57.97
1259.676,-58.05
1259.691,-58.52
1259.706,-58.7
1259.721,-58.57
1259.736,-58.51
1259.751,-58.38
1259.766,-58.52
1259.781,-58.79
1259.796,-58.64
1259.811,-58.08
1259.826,-58.14
1259.841,-58.26
1259.856,-58.41
1259.871,-58.17
1259.886,-58.17
1259.901,-58.09
1259.916,-58.25
1259.931,-58.84
1259.946,-58.62
1259.961,-58.53
1259.976,-58.48
1259.991,-58.86
1260.006,-59.0
1260.021,-58.99
1260.036,-58.93
1260.051,-58.84
1260.066,-58.99
1260.081,-59.11
1260.096,-59.02
1260.111,-58.54
1260.126,-58.47
1260.141,-58.48
1260.156,-58.55
1260.171,-58.55
1260.186,-58.45
1260.201,-58.37
1260.216,-58.53
1260.231,-59.11
1260.246,-58.95
1260.261,-58.96
1260.276,-58.86
1260.291,-59.12
1260.306,-59.27
1260.321,-59.35
1260.336,-59.23
1260.351,-59.0
1260.366,-58.94
1260.381,-59.23
1260.396,-59.34
1260.411,-58.83
1260.426,-58.69
1260.441,-58.71
1260.456,-58.73
1260.471,-59.02
1260.486,-59.04
1260.501,-59.02
1260.516,-58.96
1260.531,-59.46
1260.546,-59.67
1260.561,-59.84
1260.576,-59.76
1260.591,-59.68
1260.606,-60.05
1260.621,-59.9
1260.636,-60.18
1260.651,-59.47
1260.666,-59.64
1260.681,-59.74
1260.696,-59.56
1260.711,-59.94
1260.726,-59.55
1260.741,-59.75
1260.756,-59.69
1260.771,-60.09
1260.786,-60.13
1260.801,-60.25
1260.816,-60.51
1260.831,-60.09
1260.846,-60.45
1260.861,-59.96
1260.876,-60.57
1260.891,-59.93
1260.906,-60.03
1260.921,-60.37
1260.936,-59.95
1260.951,-60.1
1260.966,-59.64
1260.981,-59.85
1260.996,-59.47
1261.011,-59.74
1261.026,-59.65
1261.041,-59.5
1261.056,-59.57
1261.071,-59.56
1261.086,-59.89
1261.101,-59.77
1261.116,-60.34
1261.131,-59.88
1261.146,-60.23
1261.161,-60.3
1261.176,-60.05
1261.191,-59.78
1261.206,-59.78
1261.221,-59.88
1261.236,-60.1
1261.251,-60.24
1261.266,-60.09
1261.281,-60.19
1261.297,-60.14
1261.312,-60.07
1261.326,-60.17
1261.341,-60.05
1261.356,-59.8
1261.371,-59.92
1261.386,-59.91
1261.401,-59.95
1261.417,-59.86
1261.432,-59.62
1261.447,-59.67
1261.461,-59.65
1261.476,-59.87
1261.491,-59.09
1261.506,-59.14
1261.521,-59.11
1261.536,-59.09
1261.552,-59.38
1261.567,-59.07
1261.582,-58.88
1261.597,-58.88
1261.611,-59.14
1261.626,-59.28
1261.641,-59.18
1261.656,-58.85
1261.672,-58.95
1261.687,-59.12
1261.702,-59.6
1261.717,-59.21
1261.732,-58.99
1261.746,-58.79
1261.761,-58.97
1261.776,-59.34
1261.792,-58.82
1261.807,-58.51
1261.822,-58.16
1261.837,-58.44
1261.852,-58.72
1261.867,-59.08
1261.882,-58.47
1261.896,-58.38
1261.911,-58.8
1261.927,-58.72
1261.942,-58.93
1261.957,-58.54
1261.972,-58.55
1261.987,-58.44
1262.002,-59.01
1262.017,-59.08
1262.031,-58.43
1262.047,-58.39
1262.062,-58.3
1262.077,-58.72
1262.092,-58.59
1262.107,-58.61
1262.122,-58.03
1262.137,-58.03
1262.152,-58.48
1262.167,-58.41
1262.182,-58.57
1262.197,-58.25
1262.212,-58.44
1262.227,-58.53
1262.242,-58.66
1262.257,-58.26
1262.272,-57.86
1262.287,-57.9
1262.302,-57.97
1262.317,-58.48
1262.332,-58.14
1262.347,-57.98
1262.362,-58.0
1262.377,-58.29
1262.392,-58.73
1262.407,-58.64
1262.422,-58.33
1262.437,-58.32
1262.452,-58.71
1262.467,-58.82
1262.482,-58.74
1262.497,-58.7
1262.512,-58.74
1262.527,-58.73
1262.542,-59.15
1262.557,-58.8
1262.572,-58.16
1262.587,-58.12
1262.602,-58.26
1262.617,-58.59
1262.632,-58.41
1262.647,-57.98
1262.662,-58.07
1262.677,-58.07
1262.692,-58.53
1262.707,-58.04
1262.722,-57.89
1262.737,-57.79
1262.752,-57.94
1262.767,-58.22
1262.782,-58.12
1262.797,-58.03
1262.812,-57.87
1262.827,-58.27
1262.842,-58.34
1262.857,-58.26
1262.872,-57.78
1262.887,-57.78
1262.902,-58.34
1262.917,-58.34
1262.932,-58.36
1262.947,-58.01
1262.962,-58.02
1262.977,-58.02
1262.992,-58.62
1263.007,-58.4
1263.022,-57.89
1263.037,-57.84
1263.052,-58.11
1263.067,-58.52
1263.082,-58.23
1263.097,-57.98
1263.112,-57.57
1263.127,-57.72
1263.142,-58.3
1263.157,-57.96
1263.172,-57.78
1263.187,-57.48
1263.202,-57.69
1263.217,-57.79
1263.232,-58.26
1263.247,-57.83
1263.262,-57.64
1263.277,-57.88
1263.292,-57.9
1263.307,-58.36
1263.322,-57.92
1263.337,-57.82
1263.352,-57.9
1263.367,-58.18
1263.382,-58.43
1263.397,-58.1
1263.412,-57.57
1263.427,-57.46
1263.442,-57.91
1263.457,-58.03
1263.472,-57.8
1263.487,-57.53
1263.502,-57.44
1263.517,-57.67
1263.532,-57.98
1263.547,-57.93
1263.562,-57.65
1263.577,-57.72
1263.592,-58.19
1263.607,-58.38
1263.622,-58.22
1263.637,-57.9
1263.652,-58.01
1263.667,-58.54
1263.682,-58.9
1263.697,-58.52
1263.712,-58.44
1263.727,-58.68
1263.742,-58.89
1263.757,-59.12
1263.772,-58.76
1263.787,-58.44
1263.802,-58.35
1263.817,-58.61
1263.832,-58.76
1263.847,-58.57
1263.862,-58.17
1263.877,-58.12
1263.892,-58.58
1263.907,-58.38
1263.922,-58.08
1263.937,-57.9
1263.952,-57.87
1263.967,-58.02
1263.982,-58.43
1263.997,-58.32
1264.012,-57.97
1264.027,-58.12
1264.042,-58.68
1264.057,-58.8
1264.072,-58.56
1264.087,-58.4
1264.102,-58.4
1264.117,-58.98
1264.132,-59.15
1264.147,-58.83
1264.162,-58.64
1264.177,-58.59
1264.192,-58.74
1264.207,-59.14
1264.222,-58.96
1264.237,-58.42
1264.252,-58.27
1264.267,-58.4
1264.282,-58.56
1264.297,-58.79
1264.312,-58.23
1264.327,-58.04
1264.342,-58.29
1264.357,-58.48
1264.372,-58.2
1264.387,-57.76
1264.402,-57.54
1264.417,-57.91
1264.432,-58.33
1264.447,-58.4
1264.462,-57.83
1264.477,-57.92
1264.492,-58.2
1264.507,-58.51
1264.522,-58.4
1264.537,-58.15
1264.552,-57.93
1264.567,-58.35
1264.582,-58.92
1264.597,-58.57
1264.612,-58.48
1264.627,-58.22
1264.642,-58.53
1264.657,-59.07
1264.672,-58.65
1264.687,-58.07
1264.702,-57.83
1264.717,-58.06
1264.732,-58.14
1264.747,-58.15
1264.762,-57.94
1264.777,-57.89
1264.792,-58.06
1264.807,-58.52
1264.822,-58.45
1264.837,-58.02
1264.852,-57.98
1264.867,-58.34
1264.882,-58.81
1264.897,-58.9
1264.912,-58.46
1264.927,-58.45
1264.942,-58.74
1264.957,-59.15
1264.972,-59.07
1264.987,-58.52
1265.002,-58.2
1265.017,-58.25
1265.032,-58.54
1265.047,-58.34
1265.062,-57.94
1265.077,-57.82
1265.092,-57.84
1265.107,-58.51
1265.122,-58.31
1265.137,-58.0
1265.152,-57.73
1265.167,-57.81
1265.182,-58.16
1265.197,-58.26
1265.212,-58.03
1265.227,-57.85
1265.242,-57.93
1265.257,-58.33
1265.272,-58.37
1265.287,-58.12
1265.302,-57.94
1265.317,-58.19
1265.332,-58.64
1265.347,-58.73
1265.362,-58.23
1265.377,-58.28
1265.392,-58.53
1265.407,-58.86
1265.422,-59.08
1265.437,-58.79
1265.452,-58.25
1265.467,-58.26
1265.482,-58.58
1265.497,-58.67
1265.512,-58.48
1265.527,-58.21
1265.542,-58.17
1265.557,-58.47
1265.572,-58.45
1265.587,-58.05
1265.602,-58.0
1265.617,-57.88
1265.632,-57.93
1265.647,-58.27
1265.662,-58.14
1265.677,-57.89
1265.692,-57.97
1265.707,-58.37
1265.722,-58.57
1265.737,-58.55
1265.752,-58.23
1265.767,-58.24
1265.782,-58.76
1265.797,-58.79
1265.812,-58.49
1265.827,-58.4
1265.842,-58.37
1265.857,-58.46
1265.872,-58.75
1265.887,-58.56
1265.902,-58.09
1265.917,-58.08
1265.932,-58.17
1265.947,-58.35
1265.962,-58.18
1265.977,-57.97
1265.992,-58.03
1266.007,-58.1
1266.022,-58.51
1266.037,-58.15
1266.052,-58.06
1266.067,-58.19
1266.082,-58.36
1266.097,-58.68
1266.112,-58.51
1266.127,-58.15
1266.142,-58.13
1266.157,-58.58
1266.172,-58.98
1266.187,-58.82
1266.202,-58.52
1266.217,-58.35
1266.232,-58.49
1266.247,-58.99
1266.262,-58.58
1266.277,-58.39
1266.292,-58.3
1266.307,-58.39
1266.322,-58.61
1266.337,-58.38
1266.352,-58.0
1266.367,-57.94
1266.382,-58.07
1266.397,-58.27
1266.412,-58.15
1266.427,-57.88
1266.442,-57.71
1266.457,-57.96
1266.472,-58.43
1266.487,-58.31
1266.502,-58.1
1266.517,-57.89
1266.532,-58.2
1266.547,-58.86
1266.562,-58.92
1266.577,-58.31
1266.592,-58.32
1266.607,-58.43
1266.622,-58.82
1266.637,-59.23
1266.652,-58.72
1266.667,-58.26
1266.682,-58.65
1266.697,-58.97
1266.712,-59.08
1266.727,-58.85
1266.742,-58.23
1266.757,-58.52
1266.772,-58.74
1266.787,-58.81
1266.802,-58.62
1266.817,-58.23
1266.832,-58.07
1266.847,-58.13
1266.862,-58.72
1266.877,-58.17
1266.892,-57.94
1266.907,-57.95
1266.922,-58.17
1266.937,-58.58
1266.952,-58.12
1266.967,-57.95
1266.982,-57.79
1266.997,-58.13
1267.012,-58.43
1267.027,-57.91
1267.042,-58.02
1267.057,-57.94
1267.072,-58.44
1267.087,-58.28
1267.102,-58.41
1267.117,-57.82
1267.132,-57.87
1267.147,-58.48
1267.162,-58.32
1267.177,-58.16
1267.192,-57.76
1267.207,-58.08
1267.222,-58.5
1267.237,-58.39
1267.252,-58.13
1267.267,-57.92
1267.282,-58.2
1267.297,-58.39
1267.312,-58.84
1267.327,-58.35
1267.342,-58.18
1267.357,-58.53
1267.372,-58.84
1267.387,-59.14
1267.402,-58.53
1267.417,-58.64
1267.432,-58.88
1267.447,-59.13
1267.462,-59.42
1267.477,-58.9
1267.492,-58.98
1267.507,-59.18
1267.522,-59.92
1267.537,-59.83
1267.552,-58.99
1267.567,-58.67
1267.582,-58.7
1267.597,-59.36
1267.612,-59.15
1267.627,-58.81
1267.642,-58.63
1267.657,-58.71
1267.672,-59.36
1267.687,-58.79
1267.702,-58.59
1267.717,-58.17
1267.732,-58.35
1267.747,-58.82
1267.762,-58.62
1267.777,-58.64
1267.792,-58.16
1267.807,-58.34
1267.822,-58.67
1267.837,-58.74
1267.852,-58.89
1267.867,-58.44
1267.882,-58.78
1267.897,-59.1
1267.912,-59.03
1267.927,-58.9
1267.942,-58.55
1267.957,-59.02
1267.972,-59.03
1267.987,-59.21
1268.002,-58.85
1268.017,-58.63
1268.032,-59.18
1268.047,-59.09
1268.062,-59.46
1268.077,-58.83
1268.092,-59.08
1268.107,-59.0
1268.122,-59.14
1268.137,-59.38
1268.152,-58.81
1268.167,-58.82
1268.182,-59.04
1268.197,-59.54
1268.212,-59.34
1268.227,-58.69
1268.242,-58.93
1268.257,-59.04
1268.272,-59.53
1268.287,-59.25
1268.302,-58.85
1268.317,-58.82
1268.332,-59.14
1268.347,-59.63
1268.362,-59.21
1268.377,-58.97
1268.392,-59.16
1268.407,-59.48
1268.422,-59.78
1268.437,-59.25
1268.452,-59.38
1268.467,-59.56
1268.482,-60.03
1268.497,-60.09
1268.512,-59.58
1268.527,-59.34
1268.542,-59.0
1268.557,-59.59
1268.572,-59.54
1268.587,-59.57
1268.602,-59.31
1268.617,-59.05
1268.632,-59.68
1268.647,-59.41
1268.662,-59.2
1268.677,-58.57
1268.692,-58.87
1268.707,-59.38
1268.722,-59.44
1268.737,-59.24
1268.752,-58.81
1268.767,-59.28
1268.782,-59.39
1268.797,-59.42
1268.812,-59.15
1268.827,-58.76
1268.842,-59.38
1268.857,-59.36
1268.872,-59.2
1268.887,-58.8
1268.902,-58.55
1268.917,-59.04
1268.932,-59.01
1268.947,-59.34
1268.962,-58.79
1268.977,-58.79
1268.992,-59.26
1269.007,-59.45
1269.022,-59.42
1269.037,-58.88
1269.052,-59.0
1269.067,-59.21
1269.082,-59.26
1269.097,-59.13
1269.112,-58.63
1269.127,-59.02
1269.142,-59.12
1269.157,-59.72
1269.172,-59.57
1269.188,-59.15
1269.202,-59.11
1269.217,-59.28
1269.232,-59.58
1269.247,-59.35
1269.262,-59.09
1269.277,-59.12
1269.292,-59.09
1269.307,-59.79
1269.323,-59.31
1269.338,-59.05
1269.352,-59.04
1269.367,-59.51
1269.382,-59.98
1269.397,-59.26
1269.412,-59.16
1269.427,-58.89
1269.443,-59.33
1269.458,-59.42
1269.473,-58.82
1269.487,-58.5
1269.502,-58.47
1269.517,-59.11
1269.532,-58.79
1269.547,-58.66
1269.563,-58.32
1269.578,-58.25
1269.593,-58.77
1269.608,-58.36
1269.623,-58.46
1269.637,-57.98
1269.652,-58.15
1269.667,-58.61
1269.682,-58.55
1269.698,-58.56
1269.713,-58.15
1269.728,-58.51
1269.743,-58.64
1269.758,-58.62
1269.772,-58.32
1269.787,-58.16
1269.802,-58.67
1269.818,-58.69
1269.833,-58.66
1269.848,-58.06
1269.863,-58.08
1269.878,-58.6
1269.893,-58.66
1269.908,-58.66
1269.922,-58.14
1269.938,-58.44
1269.953,-58.62
1269.968,-58.51
1269.983,-58.54
1269.998,-57.99
1270.013,-58.25
1270.028,-58.45
1270.043,-58.95
1270.058,-58.83
1270.073,-58.37
1270.088,-58.89
1270.103,-59.04
1270.118,-59.56
1270.133,-58.95
1270.148,-58.91
1270.163,-58.93
1270.178,-59.18
1270.193,-59.32
1270.208,-58.91
1270.223,-58.61
1270.238,-58.83
1270.253,-59.26
1270.268,-59.49
1270.283,-58.83
1270.298,-59.03
1270.313,-59.08
1270.328,-59.52
1270.343,-59.61
1270.358,-59.07
1270.373,-58.99
1270.388,-58.87
1270.403,-59.31
1270.418,-59.0
1270.433,-59.15
1270.448,-59.34
1270.463,-59.31
1270.478,-59.62
1270.493,-59.2
1270.508,-59.4
1270.523,-58.65
1270.538,-59.01
1270.553,-59.18
1270.568,-59.11
1270.583,-59.36
1270.598,-58.91
1270.613,-59.5
1270.628,-59.41
1270.643,-59.45
1270.658,-59.21
1270.673,-58.91
1270.688,-59.55
1270.703,-59.31
1270.718,-59.38
1270.733,-58.93
1270.748,-58.84
1270.763,-59.37
1270.778,-59.35
1270.793,-59.44
1270.808,-58.81
1270.823,-59.18
1270.838,-59.22
1270.853,-59.18
1270.868,-59.21
1270.883,-58.71
1270.898,-59.19
1270.913,-59.12
1270.928,-59.28
1270.943,-59.09
1270.958,-58.69
1270.973,-59.16
1270.988,-59.02
1271.003,-59.31
1271.018,-58.92
1271.033,-58.98
1271.048,-58.82
1271.063,-58.62
1271.078,-58.85
1271.093,-58.41
1271.108,-58.57
1271.123,-58.34
1271.138,-58.73
1271.153,-58.58
1271.168,-58.17
1271.183,-58.14
1271.198,-58.1
1271.213,-58.23
1271.228,-58.28
1271.243,-58.07
1271.258,-58.07
1271.273,-58.24
1271.288,-58.38
1271.303,-58.22
1271.318,-58.16
1271.333,-58.12
1271.348,-58.37
1271.363,-58.48
1271.378,-58.21
1271.393,-58.37
1271.408,-58.17
1271.423,-58.55
1271.438,-58.47
1271.453,-58.11
1271.468,-58.11
1271.483,-58.0
1271.498,-58.52
1271.513,-58.26
1271.528,-58.62
1271.543,-58.56
1271.558,-58.77
1271.573,-58.98
1271.588,-58.75
1271.603,-59.0
1271.618,-59.05
1271.633,-59.45
1271.648,-59.57
1271.663,-59.76
1271.678,-59.98
1271.693,-59.84
1271.708,-60.43
1271.723,-60.34
1271.738,-60.41
1271.753,-60.93
1271.768,-60.47
1271.783,-60.91
1271.798,-60.58
1271.813,-60.95
1271.828,-60.82
1271.843,-61.22
1271.858,-61.73
1271.873,-61.35
1271.888,-62.04
1271.903,-62.18
1271.918,-62.61
1271.933,-62.66
1271.948,-62.53
1271.963,-63.16
1271.978,-62.82
1271.993,-63.84
1272.008,-63.38
1272.023,-63.49
1272.038,-64.2
1272.053,-63.55
1272.068,-65.22
1272.083,-64.25
1272.098,-64.58
1272.113,-64.81
1272.128,-64.07
1272.143,-63.33
1272.158,-62.91
1272.173,-63.84
1272.188,-64.07
1272.203,-64.13
1272.218,-64.16
1272.233,-64.04
1272.248,-64.56
1272.263,-65.37
1272.278,-63.55
1272.293,-63.48
1272.308,-63.55
1272.323,-63.78
1272.338,-64.59
1272.353,-62.63
1272.368,-63.03
1272.383,-62.73
1272.398,-62.39
1272.413,-63.31
1272.428,-63.18
1272.443,-63.23
1272.458,-63.29
1272.473,-63.12
1272.488,-63.78
1272.503,-63.69
1272.518,-63.62
1272.533,-62.97
1272.548,-63.09
1272.563,-62.67
1272.578,-63.15
1272.593,-63.08
1272.608,-63.05
1272.623,-63.16
1272.638,-61.95
1272.653,-62.03
1272.668,-62.0
1272.683,-61.88
1272.698,-62.2
1272.713,-61.37
1272.728,-61.56
1272.743,-61.5
1272.758,-61.05
1272.773,-61.46
1272.788,-60.75
1272.803,-60.86
1272.818,-60.83
1272.833,-60.88
1272.848,-60.53
1272.863,-60.18
1272.878,-60.56
1272.893,-60.47
1272.908,-60.28
1272.923,-60.32
1272.938,-59.85
1272.953,-60.16
1272.968,-59.95
1272.983,-60.09
1272.998,-59.92
1273.013,-59.68
1273.028,-59.91
1273.043,-59.28
1273.058,-59.4
1273.073,-59.1
1273.088,-59.42
1273.103,-59.36
1273.118,-58.97
1273.133,-59.44
1273.148,-59.34
1273.163,-59.95
1273.178,-59.64
1273.193,-59.32
1273.208,-59.57
1273.223,-59.33
1273.238,-59.61
1273.253,-59.53
1273.268,-59.1
1273.283,-59.62
1273.298,-59.5
1273.313,-59.82
1273.328,-59.6
1273.343,-59.18
1273.358,-59.7
1273.373,-59.29
1273.388,-59.58
1273.403,-59.51
1273.418,-59.26
1273.433,-59.19
1273.448,-58.98
1273.463,-59.07
1273.478,-58.98
1273.493,-58.73
1273.508,-58.56
1273.523,-58.5
1273.538,-58.83
1273.553,-58.39
1273.568,-58.36
1273.583,-58.44
1273.598,-58.48
1273.613,-58.64
1273.628,-58.25
1273.643,-58.38
1273.658,-58.52
1273.673,-58.41
1273.688,-58.46
1273.703,-58.04
1273.718,-58.17
1273.733,-58.25
1273.748,-58.67
1273.763,-58.54
1273.778,-58.11
1273.793,-58.37
1273.808,-58.5
1273.823,-59.12
1273.838,-58.77
1273.853,-58.45
1273.868,-58.87
1273.883,-59.07
1273.898,-59.53
1273.913,-59.21
1273.928,-58.63
1273.943,-59.37
1273.958,-59.24
1273.973,-59.55
1273.988,-59.14
1274.003,-58.7
1274.018,-59.31
1274.033,-59.32
1274.048,-59.72
1274.063,-59.36
1274.078,-59.38
1274.093,-59.52
1274.108,-59.43
1274.123,-59.66
1274.138,-59.12
1274.153,-59.34
1274.168,-59.16
1274.183,-59.13
1274.198,-59.12
1274.213,-58.78
1274.228,-59.03
1274.243,-59.07
1274.258,-58.94
1274.273,-58.98
1274.288,-58.49
1274.303,-58.78
1274.318,-58.82
1274.333,-58.82
1274.348,-58.66
1274.363,-58.23
1274.378,-58.64
1274.393,-58.54
1274.408,-58.77
1274.423,-58.48
1274.438,-58.3
1274.453,-58.7
1274.468,-58.68
1274.483,-58.78
1274.498,-58.67
1274.513,-58.69
1274.528,-59.04
1274.543,-58.64
1274.558,-59.07
1274.573,-58.87
1274.588,-58.72
1274.603,-58.71
1274.618,-58.54
1274.633,-58.55
1274.648,-58.39
1274.663,-58.41
1274.678,-58.51
1274.693,-58.42
1274.708,-58.45
1274.723,-58.29
1274.738,-58.34
1274.753,-57.96
1274.768,-57.84
1274.783,-57.99
1274.798,-57.9
1274.813,-58.07
1274.828,-57.55
1274.843,-57.53
1274.858,-57.67
1274.873,-57.62
1274.888,-57.75
1274.903,-57.35
1274.918,-57.29
1274.933,-57.4
1274.948,-57.17
1274.963,-57.39
1274.978,-57.03
1274.993,-56.98
1275.008,-57.1
1275.023,-56.95
1275.038,-57.07
1275.053,-56.9
1275.068,-56.93
1275.083,-56.84
1275.098,-56.87
1275.113,-57.02
1275.128,-56.91
1275.143,-56.99
1275.158,-56.82
1275.173,-56.86
1275.188,-57.03
1275.203,-57.0
1275.218,-57.08
1275.233,-56.91
1275.248,-56.91
1275.263,-57.06
1275.278,-57.0
1275.293,-56.99
1275.308,-56.86
1275.323,-56.87
1275.338,-56.89
1275.353,-56.75
1275.368,-56.73
1275.383,-56.64
1275.398,-56.86
1275.413,-56.62
1275.428,-56.8
1275.443,-56.61
1275.458,-56.46
1275.473,-56.65
1275.488,-56.52
1275.503,-56.62
1275.518,-56.43
1275.533,-56.35
1275.548,-56.66
1275.563,-56.42
1275.578,-56.5
1275.593,-56.41
1275.608,-56.49
1275.623,-56.6
1275.638,-56.54
1275.653,-56.69
1275.668,-56.45
1275.683,-56.54
1275.698,-56.58
1275.713,-56.52
1275.728,-56.54
1275.743,-56.38
1275.758,-56.55
1275.773,-56.57
1275.788,-56.55
1275.803,-56.47
1275.818,-56.27
1275.833,-56.6
1275.848,-56.67
1275.863,-56.6
1275.878,-56.48
1275.893,-56.31
1275.908,-56.5
1275.923,-56.49
1275.938,-56.54
1275.953,-56.48
1275.968,-56.44
1275.983,-56.52
1275.998,-56.58
1276.013,-56.78
1276.028,-56.67
1276.043,-56.71
1276.058,-56.79
1276.073,-56.75
1276.088,-57.09
1276.103,-56.82
1276.118,-56.92
1276.133,-56.98
1276.148,-56.9
1276.163,-57.25
1276.178,-57.15
1276.193,-57.21
1276.208,-57.19
1276.223,-57.13
1276.238,-57.36
1276.253,-57.29
1276.268,-57.22
1276.283,-57.17
1276.298,-57.3
1276.313,-57.49
1276.328,-57.35
1276.343,-57.33
1276.358,-57.36
1276.373,-57.69
1276.388,-57.62
1276.403,-57.57
1276.418,-57.6
1276.433,-57.41
1276.448,-57.81
1276.463,-57.91
1276.478,-58.01
1276.493,-57.93
1276.508,-57.85
1276.523,-58.37
1276.538,-58.36
1276.553,-58.07
1276.568,-58.05
1276.583,-58.28
1276.598,-58.63
1276.613,-58.51
1276.628,-58.52
1276.643,-58.49
1276.658,-58.43
1276.673,-58.99
1276.688,-58.64
1276.703,-58.58
1276.718,-58.58
1276.733,-58.77
1276.748,-59.48
1276.763,-58.88
1276.778,-59.03
1276.793,-58.93
1276.808,-59.38
1276.823,-59.93
1276.838,-59.22
1276.853,-58.99
1276.868,-58.97
1276.883,-59.38
1276.898,-59.53
1276.913,-58.9
1276.928,-58.84
1276.943,-58.68
1276.958,-59.07
1276.973,-59.01
1276.988,-58.76
1277.003,-58.9
1277.018,-58.7
1277.033,-59.29
1277.048,-58.92
1277.063,-58.54
1277.078,-58.89
1277.093,-58.59
1277.108,-58.98
1277.123,-58.64
1277.138,-58.34
1277.153,-58.62
1277.168,-58.69
1277.183,-58.93
1277.198,-58.62
1277.214,-58.46
1277.228,-58.66
1277.243,-58.99
1277.258,-59.12
1277.273,-58.79
1277.288,-58.73
1277.303,-58.88
1277.318,-58.9
1277.333,-59.09
1277.349,-58.86
1277.364,-58.84
1277.378,-58.98
1277.393,-59.47
1277.408,-59.48
1277.423,-59.16
1277.438,-59.34
1277.453,-59.73
1277.469,-59.67
1277.484,-58.96
1277.499,-58.81
1277.514,-58.98
1277.528,-59.1
1277.543,-58.91
1277.558,-58.48
1277.573,-58.49
1277.589,-58.65
1277.604,-58.75
1277.619,-58.49
1277.634,-58.16
1277.649,-58.16
1277.663,-58.49
1277.678,-58.4
1277.693,-58.29
1277.708,-58.14
1277.724,-58.64
1277.739,-59.15
1277.754,-58.78
1277.769,-58.59
1277.784,-58.44
1277.799,-59.04
1277.813,-59.24
1277.828,-58.92
1277.844,-58.79
1277.859,-58.89
1277.874,-59.59
1277.889,-59.78
1277.904,-59.22
1277.919,-59.2
1277.934,-59.43
1277.948,-60.23
1277.964,-60.48
1277.979,-59.78
1277.994,-59.71
1278.009,-59.83
1278.024,-60.58
1278.039,-59.84
1278.054,-59.57
1278.069,-59.69
1278.084,-59.99
1278.099,-60.51
1278.114,-59.88
1278.129,-59.49
1278.144,-59.72
1278.159,-60.25
1278.174,-60.03
1278.189,-59.24
1278.204,-58.94
1278.219,-59.08
1278.234,-59.66
1278.249,-59.12
1278.264,-58.54
1278.279,-58.34
1278.294,-58.67
1278.309,-59.04
1278.324,-58.85
1278.339,-58.39
1278.354,-58.37
1278.369,-58.57
1278.384,-58.87
1278.399,-58.5
1278.414,-57.98
1278.429,-58.29
1278.444,-58.52
1278.459,-58.43
1278.474,-58.2
1278.489,-58.26
1278.504,-58.66
1278.519,-59.03
1278.534,-58.8
1278.549,-58.49
1278.564,-58.5
1278.579,-59.31
1278.594,-59.25
1278.609,-59.02
1278.624,-58.96
1278.639,-58.94
1278.654,-59.56
1278.669,-59.49
1278.684,-59.35
1278.699,-59.19
1278.714,-59.31
1278.729,-59.46
1278.744,-59.17
1278.759,-59.01
1278.774,-58.98
1278.789,-59.23
1278.804,-59.4
1278.819,-58.8
1278.834,-58.75
1278.849,-58.75
1278.864,-58.78
1278.879,-58.73
1278.894,-58.22
1278.909,-58.12
1278.924,-58.29
1278.939,-58.67
1278.954,-58.48
1278.969,-58.03
1278.984,-58.01
1278.999,-58.06
1279.014,-58.45
1279.029,-58.18
1279.044,-58.03
1279.059,-58.15
1279.074,-58.3
1279.089,-58.41
1279.104,-58.05
1279.119,-57.95
1279.134,-58.33
1279.149,-58.79
1279.164,-58.73
1279.179,-58.25
1279.194,-58.34
1279.209,-58.65
1279.224,-59.08
1279.239,-58.96
1279.254,-58.67
1279.269,-58.63
1279.284,-59.28
1279.299,-59.39
1279.314,-59.22
1279.329,-58.95
1279.344,-59.15
1279.359,-59.56
1279.374,-59.62
1279.389,-59.17
1279.404,-59.08
1279.419,-59.37
1279.434,-59.79
1279.449,-59.64
1279.464,-59.09
1279.479,-58.99
1279.494,-59.26
1279.509,-59.46
1279.524,-59.03
1279.539,-58.74
1279.554,-58.74
1279.569,-59.25
1279.584,-59.06
1279.599,-58.88
1279.614,-58.51
1279.629,-58.42
1279.644,-58.89
1279.659,-58.64
1279.674,-58.34
1279.689,-58.25
1279.704,-58.29
1279.719,-58.89
1279.734,-58.5
1279.749,-58.22
1279.764,-57.97
1279.779,-58.31
1279.794,-58.55
1279.809,-58.12
1279.824,-58.08
1279.839,-58.06
1279.854,-58.5
1279.869,-58.99
1279.884,-58.62
1279.899,-58.4
1279.914,-58.73
1279.929,-59.28
1279.944,-59.14
1279.959,-58.73
1279.974,-58.65
1279.989,-59.05
1280.004,-59.6
1280.019,-58.96
1280.034,-58.63
1280.049,-58.78
1280.064,-59.2
1280.079,-59.29
1280.094,-58.63
1280.109,-58.36
1280.124,-58.58
1280.139,-58.74
1280.154,-58.42
1280.169,-57.85
1280.184,-57.89
1280.199,-58.13
1280.214,-58.31
1280.229,-58.02
1280.244,-57.53
1280.259,-57.5
1280.274,-57.82
1280.289,-57.9
1280.304,-57.7
1280.319,-57.4
1280.334,-57.73
1280.349,-58.03
1280.364,-57.65
1280.379,-57.41
1280.394,-57.37
1280.409,-57.78
1280.424,-57.97
1280.439,-57.56
1280.454,-57.42
1280.469,-57.49
1280.484,-57.9
1280.499,-58.16
1280.514,-57.66
1280.529,-57.66
1280.544,-57.81
1280.559,-58.24
1280.574,-58.5
1280.589,-58.05
1280.604,-57.93
1280.619,-58.18
1280.634,-58.73
1280.649,-58.39
1280.664,-58.16
1280.679,-58.36
1280.694,-58.46
1280.709,-58.7
1280.724,-58.17
1280.739,-57.98
1280.754,-58.03
1280.769,-58.39
1280.784,-58.34
1280.799,-57.99
1280.814,-57.87
1280.829,-58.0
1280.844,-58.29
1280.859,-58.05
1280.874,-57.49
1280.889,-57.53
1280.904,-57.81
1280.919,-58.1
1280.934,-57.81
1280.949,-57.44
1280.964,-57.7
1280.979,-57.94
1280.994,-58.05
1281.009,-57.58
1281.024,-57.63
1281.039,-57.9
1281.054,-58.12
1281.069,-57.94
1281.084,-57.68
1281.099,-57.88
1281.114,-58.48
1281.129,-58.81
1281.144,-58.6
1281.159,-58.3
1281.174,-58.56
1281.189,-59.1
1281.204,-59.06
1281.219,-58.86
1281.234,-58.64
1281.249,-58.74
1281.264,-59.66
1281.279,-59.61
1281.294,-59.17
1281.309,-58.92
1281.324,-59.32
1281.339,-59.52
1281.354,-59.06
1281.369,-59.01
1281.384,-59.02
1281.399,-59.33
1281.414,-59.4
1281.429,-58.91
1281.444,-58.52
1281.459,-58.56
1281.474,-59.03
1281.489,-59.07
1281.504,-58.49
1281.519,-58.41
1281.534,-58.29
1281.549,-58.41
1281.564,-58.56
1281.579,-58.02
1281.594,-58.01
1281.609,-58.48
1281.624,-58.62
1281.639,-58.44
1281.654,-58.21
1281.669,-58.25
1281.684,-58.74
1281.699,-58.74
1281.714,-58.6
1281.729,-58.46
1281.744,-58.56
1281.759,-59.01
1281.774,-58.75
1281.789,-58.58
1281.804,-58.47
1281.819,-58.68
1281.834,-59.18
1281.849,-58.69
1281.864,-58.53
1281.879,-58.53
1281.894,-58.75
1281.909,-59.02
1281.924,-58.44
1281.939,-58.31
1281.954,-58.98
1281.969,-58.9
1281.984,-58.83
1281.999,-58.14
1282.014,-58.31
1282.029,-58.8
1282.044,-58.91
1282.059,-58.86
1282.074,-58.32
1282.089,-58.65
1282.104,-59.05
1282.119,-58.56
1282.134,-58.28
1282.149,-57.96
1282.164,-58.25
1282.179,-58.45
1282.194,-58.0
1282.209,-58.05
1282.224,-57.9
1282.239,-58.34
1282.254,-58.63
1282.269,-58.01
1282.284,-58.02
1282.299,-58.01
1282.314,-58.51
1282.329,-58.34
1282.344,-57.97
1282.359,-58.12
1282.374,-58.27
1282.389,-58.75
1282.404,-58.62
1282.419,-58.26
1282.434,-58.61
1282.449,-58.9
1282.464,-58.98
1282.479,-58.64
1282.494,-58.33
1282.509,-58.82
1282.524,-58.85
1282.539,-59.09
1282.554,-59.27
1282.569,-58.69
1282.584,-59.21
1282.599,-59.1
1282.614,-58.66
1282.629,-58.7
1282.644,-58.43
1282.659,-58.9
1282.674,-58.89
1282.689,-58.4
1282.704,-58.49
1282.719,-58.41
1282.734,-58.73
1282.749,-58.69
1282.764,-58.53
1282.779,-58.78
1282.794,-58.75
1282.809,-58.72
1282.824,-58.59
1282.839,-58.39
1282.854,-58.84
1282.869,-58.8
1282.884,-58.93
1282.899,-59.03
1282.914,-58.88
1282.929,-59.39
1282.944,-59.4
1282.959,-58.8
1282.974,-58.85
1282.989,-58.81
1283.004,-59.42
1283.019,-59.38
1283.034,-58.98
1283.049,-58.93
1283.064,-58.8
1283.079,-59.44
1283.094,-59.13
1283.109,-58.81
1283.124,-59.27
1283.139,-59.26
1283.154,-59.35
1283.169,-59.18
1283.184,-59.19
1283.199,-59.81
1283.214,-59.65
1283.229,-59.43
1283.244,-59.43
1283.259,-59.34
1283.274,-59.86
1283.289,-59.47
1283.304,-59.37
1283.319,-59.37
1283.334,-59.81
1283.349,-60.06
1283.364,-59.66
1283.379,-59.41
1283.394,-59.44
1283.409,-59.33
1283.424,-59.59
1283.439,-58.99
1283.454,-58.88
1283.469,-59.63
1283.484,-59.58
1283.499,-59.59
1283.514,-58.98
1283.529,-59.07
1283.544,-59.64
1283.559,-59.13
1283.574,-59.24
1283.589,-58.82
1283.604,-59.21
1283.619,-59.39
1283.634,-59.01
1283.649,-58.96
1283.664,-59.03
1283.679,-59.34
1283.694,-59.82
1283.709,-59.21
1283.724,-59.24
1283.739,-59.35
1283.754,-59.33
1283.769,-59.41
1283.784,-59.09
1283.799,-59.28
1283.814,-59.77
1283.829,-59.79
1283.844,-59.8
1283.859,-59.04
1283.874,-59.27
1283.889,-59.54
1283.904,-59.11
1283.919,-58.9
1283.934,-58.43
1283.949,-58.74
1283.964,-58.96
1283.979,-58.58
1283.994,-58.66
1284.009,-58.69
1284.024,-59.02
1284.039,-59.12
1284.054,-58.68
1284.069,-58.92
1284.084,-58.83
1284.099,-58.81
1284.114,-58.89
1284.129,-58.29
1284.144,-58.34
1284.159,-58.72
1284.174,-58.72
1284.189,-58.73
1284.204,-58.27
1284.219,-58.58
1284.234,-58.81
1284.249,-58.38
1284.264,-58.44
1284.279,-58.07
1284.294,-58.61
1284.309,-58.63
1284.324,-58.35
1284.339,-58.23
1284.354,-58.26
1284.369,-58.61
1284.384,-58.54
1284.399,-58.14
1284.414,-58.53
1284.429,-58.49
1284.444,-58.58
1284.459,-58.51
1284.474,-58.05
1284.489,-58.41
1284.504,-58.42
1284.519,-58.45
1284.534,-58.27
1284.549,-57.95
1284.564,-58.35
1284.579,-58.35
1284.594,-58.2
1284.609,-58.17
1284.624,-58.13
1284.639,-58.58
1284.654,-58.57
1284.669,-58.27
1284.684,-58.28
1284.699,-58.13
1284.714,-58.61
1284.729,-58.49
1284.744,-58.12
1284.759,-58.42
1284.774,-58.4
1284.789,-58.39
1284.804,-58.06
1284.819,-57.83
1284.834,-58.29
1284.849,-58.03
1284.864,-58.2
1284.879,-57.98
1284.894,-58.01
1284.909,-58.41
1284.924,-58.43
1284.939,-58.48
1284.954,-58.49
1284.969,-58.61
1284.984,-58.96
1284.999,-58.79
1285.014,-58.57
1285.029,-58.51
1285.044,-58.54
1285.059,-59.09
1285.074,-58.74
1285.089,-58.44
1285.104,-59.06
1285.119,-58.9
1285.134,-59.1
1285.149,-58.78
1285.164,-58.48
1285.179,-59.17
1285.194,-58.85
1285.209,-58.96
1285.224,-58.4
1285.24,-58.49
1285.255,-59.16
1285.269,-58.81
1285.284,-58.94
1285.299,-58.83
1285.314,-59.03
1285.329,-59.39
1285.344,-59.03
1285.359,-58.76
1285.375,-58.84
1285.39,-58.99
1285.404,-59.37
1285.419,-58.92
1285.434,-58.74
1285.449,-59.06
1285.464,-59.22
1285.479,-59.47
1285.495,-58.77
1285.51,-58.77
1285.525,-59.36
1285.54,-59.26
1285.554,-59.2
1285.569,-58.67
1285.584,-58.97
1285.599,-59.63
1285.615,-59.05
1285.63,-59.12
1285.645,-59.11
1285.66,-59.42
1285.675,-59.83
1285.689,-59.23
1285.704,-59.2
1285.719,-59.17
1285.734,-59.08
1285.75,-59.27
1285.765,-58.92
1285.78,-58.98
1285.795,-59.31
1285.81,-59.22
1285.825,-59.33
1285.839,-58.54
1285.854,-58.93
1285.87,-59.44
1285.885,-59.23
1285.9,-59.17
1285.915,-58.82
1285.93,-59.16
1285.945,-59.4
1285.96,-58.98
1285.974,-58.81
1285.99,-59.06
1286.005,-59.58
1286.02,-59.65
1286.035,-59.14
1286.05,-59.12
1286.065,-59.1
1286.08,-59.06
1286.095,-59.17
1286.11,-58.43
1286.125,-58.81
1286.14,-59.12
1286.155,-59.28
1286.17,-59.53
1286.185,-58.68
1286.2,-59.02
1286.215,-59.38
1286.23,-59.37
1286.245,-59.22
1286.26,-58.5
1286.275,-58.93
1286.29,-59.22
1286.305,-58.72
1286.32,-58.5
1286.335,-58.56
1286.35,-58.87
1286.365,-59.09
1286.38,-58.62
1286.395,-58.63
1286.41,-58.54
1286.425,-58.55
1286.44,-58.8
1286.455,-58.4
1286.47,-58.55
1286.485,-58.64
1286.5,-58.73
1286.515,-58.82
1286.53,-58.17
1286.545,-58.43
1286.56,-58.96
1286.575,-58.89
1286.59,-58.67
1286.605,-58.57
1286.62,-58.93
1286.635,-59.24
1286.65,-58.75
1286.665,-58.62
1286.68,-58.78
1286.695,-58.92
1286.71,-59.04
1286.725,-58.49
1286.74,-58.63
1286.755,-58.88
1286.77,-58.85
1286.785,-58.64
1286.8,-58.23
1286.815,-58.59
1286.83,-58.87
1286.845,-58.95
1286.86,-58.81
1286.875,-58.78
1286.89,-59.09
1286.905,-59.24
1286.92,-59.08
1286.935,-58.73
1286.95,-59.01
1286.965,-59.22
1286.98,-59.2
1286.995,-58.66
1287.01,-58.35
1287.025,-58.7
1287.04,-58.72
1287.055,-58.51
1287.07,-58.22
1287.085,-58.31
1287.1,-58.58
1287.115,-58.64
1287.13,-58.34
1287.145,-58.33
1287.16,-58.43
1287.175,-58.57
1287.19,-58.67
1287.205,-58.58
1287.22,-58.6
1287.235,-58.56
1287.25,-58.45
1287.265,-58.71
1287.28,-58.57
1287.295,-58.81
1287.31,-58.83
1287.325,-58.98
1287.34,-58.92
1287.355,-58.89
1287.37,-59.12
1287.385,-58.98
1287.4,-58.96
1287.415,-59.15
1287.43,-59.18
1287.445,-58.74
1287.46,-58.75
1287.475,-58.63
1287.49,-58.66
1287.505,-58.78
1287.52,-58.61
1287.535,-58.81
1287.55,-58.71
1287.565,-58.5
1287.58,-58.7
1287.595,-58.66
1287.61,-58.64
1287.625,-58.85
1287.64,-58.35
1287.655,-58.55
1287.67,-58.39
1287.685,-58.2
1287.7,-58.29
1287.715,-58.01
1287.73,-58.08
1287.745,-58.0
1287.76,-57.92
1287.775,-58.08
1287.79,-58.06
1287.805,-58.25
1287.82,-58.48
1287.835,-58.33
1287.85,-58.53
1287.865,-58.55
1287.88,-58.2
1287.895,-58.23
1287.91,-58.1
1287.925,-58.57
1287.94,-58.48
1287.955,-58.16
1287.97,-58.4
1287.985,-58.48
1288.0,-58.48
1288.015,-58.48
1288.03,-57.9
1288.045,-58.11
1288.06,-58.35
1288.075,-58.15
1288.09,-58.3
1288.105,-58.24
1288.12,-58.73
1288.135,-58.96
1288.15,-58.4
1288.165,-58.32
1288.18,-58.3
1288.195,-58.15
1288.21,-58.4
1288.225,-57.93
1288.24,-58.04
1288.255,-58.53
1288.27,-58.45
1288.285,-58.38
1288.3,-57.87
1288.315,-58.12
1288.33,-58.32
1288.345,-58.04
1288.36,-57.81
1288.375,-57.74
1288.39,-57.81
1288.405,-58.09
1288.42,-57.63
1288.435,-57.6
1288.45,-58.13
1288.465,-58.22
1288.48,-58.27
1288.495,-57.92
1288.51,-57.91
1288.525,-58.25
1288.54,-58.09
1288.555,-58.08
1288.57,-58.16
1288.585,-58.24
1288.6,-58.62
1288.615,-58.36
1288.63,-58.02
1288.645,-58.38
1288.66,-58.28
1288.675,-58.57
1288.69,-58.28
1288.705,-58.1
1288.72,-58.54
1288.735,-58.52
1288.75,-58.56
1288.765,-58.75
1288.78,-58.67
1288.795,-58.95
1288.81,-58.79
1288.825,-58.46
1288.84,-58.45
1288.855,-58.47
1288.87,-58.85
1288.885,-58.73
1288.9,-58.57
1288.915,-59.08
1288.93,-58.64
1288.945,-58.64
1288.96,-58.6
1288.975,-58.36
1288.99,-58.57
1289.005,-58.46
1289.02,-58.39
1289.035,-58.87
1289.05,-58.7
1289.065,-58.86
1289.08,-58.8
1289.095,-58.74
1289.11,-58.92
1289.125,-58.6
1289.14,-58.29
1289.155,-58.23
1289.17,-58.4
1289.185,-58.54
1289.2,-58.59
1289.215,-58.47
1289.23,-58.63
1289.245,-58.71
1289.26,-58.71
1289.275,-58.6
1289.29,-58.72
1289.305,-59.25
1289.32,-59.04
1289.335,-58.9
1289.35,-58.81
1289.365,-58.95
1289.38,-58.93
1289.395,-58.98
1289.41,-58.63
1289.425,-58.75
1289.44,-58.8
1289.455,-58.65
1289.47,-58.59
1289.485,-58.5
1289.5,-58.75
1289.515,-59.14
1289.53,-58.85
1289.545,-59.13
1289.56,-59.23
1289.575,-59.11
1289.59,-59.27
1289.605,-58.87
1289.62,-59.09
1289.635,-58.91
1289.65,-58.77
1289.665,-59.12
1289.68,-58.87
1289.695,-58.84
1289.71,-58.75
1289.725,-58.69
1289.74,-58.99
1289.755,-58.99
1289.77,-58.78
1289.785,-58.94
1289.8,-58.66
1289.815,-59.08
1289.83,-59.09
1289.845,-58.87
1289.86,-59.12
1289.875,-58.72
1289.89,-58.62
1289.905,-58.53
1289.92,-58.18
1289.935,-58.42
1289.95,-58.46
1289.965,-58.42
1289.98,-58.72
1289.995,-58.39
1290.01,-58.66
1290.025,-58.79
1290.04,-58.51
1290.055,-58.7
1290.07,-58.44
1290.085,-58.93
1290.1,-58.99
1290.115,-58.67
1290.13,-58.92
1290.145,-58.94
1290.16,-59.08
1290.175,-59.43
1290.19,-58.88
1290.205,-59.41
1290.22,-59.32
1290.235,-59.18
1290.25,-59.18
1290.265,-59.0
1290.28,-59.4
1290.295,-59.31
1290.31,-58.83
1290.325,-59.01
1290.34,-59.12
1290.355,-59.08
1290.37,-59.11
1290.385,-58.82
1290.4,-59.1
1290.415,-59.25
1290.43,-58.97
1290.445,-59.17
1290.46,-59.3
1290.475,-59.45
1290.49,-59.76
1290.505,-59.54
1290.52,-59.2
1290.535,-59.45
1290.55,-59.02
1290.565,-59.15
1290.58,-59.08
1290.595,-58.94
1290.61,-59.27
1290.625,-58.91
1290.64,-59.01
1290.655,-59.51
1290.67,-59.16
1290.685,-59.33
1290.7,-59.23
1290.715,-59.55
1290.73,-59.85
1290.745,-59.41
1290.76,-59.36
1290.775,-59.4
1290.79,-59.14
1290.805,-59.51
1290.82,-58.98
1290.835,-58.87
1290.85,-59.42
1290.865,-59.13
1290.88,-59.28
1290.895,-59.05
1290.91,-59.33
1290.925,-59.85
1290.94,-59.32
1290.955,-59.0
1290.97,-59.49
1290.985,-59.31
1291.0,-59.64
1291.015,-59.27
1291.03,-59.12
1291.045,-59.58
1291.06,-59.48
1291.075,-59.13
1291.09,-58.67
1291.105,-58.7
1291.12,-59.2
1291.135,-58.98
1291.15,-58.51
1291.165,-58.71
1291.18,-59.01
1291.195,-59.31
1291.21,-58.86
1291.225,-58.67
1291.24,-58.84
1291.255,-59.34
1291.27,-59.07
1291.285,-58.57
1291.3,-58.51
1291.315,-58.82
1291.33,-59.07
1291.345,-58.69
1291.36,-58.43
1291.375,-58.85
1291.39,-59.36
1291.405,-59.36
1291.42,-58.88
1291.435,-59.05
1291.45,-59.46
1291.465,-59.42
1291.48,-58.89
1291.495,-58.52
1291.51,-58.57
1291.525,-58.79
1291.54,-58.51
1291.555,-58.29
1291.57,-58.27
1291.585,-58.69
1291.6,-58.87
1291.615,-58.45
1291.63,-58.37
1291.645,-58.57
1291.66,-58.5
1291.675,-58.29
1291.69,-57.97
1291.705,-57.99
1291.72,-58.26
1291.735,-58.19
1291.75,-57.91
1291.765,-58.01
1291.78,-58.38
1291.795,-58.43
1291.81,-58.23
1291.825,-58.0
1291.84,-58.34
1291.855,-58.33
1291.87,-58.14
1291.885,-57.64
1291.9,-58.05
1291.915,-58.24
1291.93,-58.24
1291.945,-58.0
1291.96,-58.02
1291.975,-58.17
1291.99,-58.35
1292.005,-57.87
1292.02,-57.8
1292.035,-57.82
1292.05,-58.0
1292.065,-57.86
1292.08,-57.84
1292.095,-58.07
1292.11,-58.59
1292.125,-58.51
1292.14,-58.09
1292.155,-58.17
1292.17,-58.59
1292.185,-58.37
1292.2,-57.9
1292.215,-57.78
1292.23,-57.83
1292.245,-58.11
1292.26,-57.83
1292.275,-57.56
1292.29,-57.62
1292.305,-58.05
1292.32,-58.01
1292.335,-57.76
1292.35,-57.49
1292.365,-57.87
1292.38,-58.18
1292.395,-57.87
1292.41,-57.48
1292.425,-57.75
1292.44,-58.02
1292.455,-58.08
1292.47,-57.54
1292.485,-57.55
1292.5,-57.87
1292.515,-58.15
1292.53,-57.72
1292.545,-57.62
1292.56,-57.77
1292.575,-58.16
1292.59,-58.0
1292.605,-57.66
1292.62,-57.8
1292.635,-58.04
1292.65,-58.36
1292.665,-58.11
1292.68,-58.1
1292.695,-58.53
1292.71,-58.63
1292.725,-58.41
1292.74,-58.03
1292.755,-57.99
1292.77,-58.42
1292.785,-58.08
1292.8,-57.77
1292.815,-57.68
1292.83,-58.13
1292.845,-58.41
1292.86,-57.95
1292.875,-57.91
1292.89,-58.4
1292.905,-58.37
1292.92,-58.29
1292.935,-57.84
1292.95,-57.81
1292.965,-58.31
1292.98,-58.24
1292.995,-57.89
1293.01,-58.0
1293.025,-58.41
1293.04,-58.55
1293.055,-58.29
1293.07,-57.97
1293.085,-58.25
1293.1,-58.64
1293.115,-58.18
1293.13,-57.87
1293.145,-58.17
1293.16,-58.42
1293.175,-58.3
1293.19,-57.91
1293.205,-58.12
1293.22,-58.46
1293.235,-58.49
1293.25,-58.13
1293.266,-58.01
1293.281,-58.31
1293.295,-58.69
1293.31,-58.19
1293.325,-58.03
1293.34,-58.19
1293.355,-58.58
1293.37,-58.8
1293.385,-58.15
1293.401,-58.1
1293.416,-58.42
1293.43,-58.31
1293.445,-57.97
1293.46,-57.78
1293.475,-57.96
1293.49,-58.32
1293.505,-57.99
1293.521,-57.67
1293.536,-58.11
1293.551,-58.41
1293.566,-58.35
1293.58,-58.03
1293.595,-57.75
1293.61,-58.23
1293.625,-58.28
1293.641,-57.97
1293.656,-57.71
1293.671,-58.0
1293.686,-58.33
1293.701,-58.11
1293.715,-57.86
1293.73,-57.91
1293.745,-58.45
1293.76,-58.48
1293.776,-57.96
1293.791,-57.71
1293.806,-58.24
1293.821,-58.58
1293.836,-58.14
1293.851,-57.69
1293.865,-58.08
1293.88,-58.36
1293.896,-58.39
1293.911,-58.01
1293.926,-58.06
1293.941,-58.66
1293.956,-58.75
1293.971,-58.24
1293.986,-58.24
1294.001,-58.4
1294.016,-58.77
1294.031,-58.51
1294.046,-58.19
1294.061,-58.1
1294.076,-58.73
1294.091,-59.19
1294.106,-58.91
1294.121,-58.68
1294.136,-58.76
1294.151,-58.98
1294.166,-58.88
1294.181,-58.56
1294.196,-58.51
1294.211,-58.58
1294.226,-58.61
1294.241,-58.65
1294.256,-58.65
1294.271,-58.78
1294.286,-59.04
1294.301,-59.14
1294.316,-59.02
1294.331,-59.2
1294.346,-59.4
1294.361,-59.31
1294.376,-58.67
1294.391,-58.76
1294.406,-58.87
1294.421,-58.89
1294.436,-58.69
1294.451,-58.65
1294.466,-58.76
1294.481,-59.12
1294.496,-58.71
1294.511,-58.72
1294.526,-58.79
1294.541,-58.99
1294.556,-58.99
1294.571,-58.82
1294.586,-58.79
1294.601,-59.53
1294.616,-59.35
1294.631,-59.25
1294.646,-59.14
1294.661,-59.28
1294.676,-59.42
1294.691,-59.2
1294.706,-58.61
1294.721,-58.6
1294.736,-58.92
1294.751,-58.78
1294.766,-58.66
1294.781,-58.61
1294.796,-59.13
1294.811,-59.47
1294.826,-59.23
1294.841,-59.19
1294.856,-59.36
1294.871,-59.42
1294.886,-59.46
1294.901,-58.89
1294.916,-59.05
1294.931,-58.97
1294.946,-58.97
1294.961,-58.89
1294.976,-58.9
1294.991,-58.79
1295.006,-59.24
1295.021,-58.8
1295.036,-58.47
1295.051,-58.56
1295.066,-58.82
1295.081,-58.81
1295.096,-58.17
1295.111,-57.83
1295.126,-58.27
1295.141,-58.66
1295.156,-58.42
1295.171,-58.04
1295.186,-58.05
1295.201,-58.62
1295.216,-58.89
1295.231,-58.31
1295.246,-58.09
1295.261,-58.26
1295.276,-58.71
1295.291,-58.46
1295.306,-57.77
1295.321,-57.96
1295.336,-58.09
1295.351,-58.16
1295.366,-57.81
1295.381,-57.92
1295.396,-58.29
1295.411,-58.5
1295.426,-58.14
1295.441,-57.92
1295.456,-58.19
1295.471,-58.55
1295.486,-58.35
1295.501,-58.17
1295.516,-58.25
1295.531,-58.81
1295.546,-58.47
1295.561,-58.09
1295.576,-58.06
1295.591,-58.33
1295.606,-58.28
1295.621,-58.03
1295.636,-57.56
1295.651,-57.95
1295.666,-58.2
1295.681,-58.12
1295.696,-57.71
1295.711,-57.88
1295.726,-58.54
1295.741,-58.51
1295.756,-57.97
1295.771,-58.18
1295.786,-58.35
1295.801,-58.76
1295.816,-58.41
1295.831,-57.86
1295.846,-58.08
1295.861,-58.6
1295.876,-58.17
1295.891,-57.88
1295.906,-57.79
1295.921,-57.77
1295.936,-58.28
1295.951,-57.8
1295.966,-57.48
1295.981,-57.83
1295.996,-58.18
1296.011,-58.15
1296.026,-57.98
1296.041,-57.98
1296.056,-58.43
1296.071,-58.46
1296.086,-58.07
1296.101,-58.31
1296.116,-58.86
1296.131,-58.84
1296.146,-58.46
1296.161,-58.08
1296.176,-58.49
1296.191,-58.86
1296.206,-58.37
1296.221,-58.05
1296.236,-58.54
1296.251,-58.73
1296.266,-58.93
1296.281,-58.29
1296.296,-58.27
1296.311,-59.07
1296.326,-58.75
1296.341,-58.55
1296.356,-58.46
1296.371,-58.49
1296.386,-58.92
1296.401,-58.57
1296.416,-58.32
1296.431,-58.73
1296.446,-59.08
1296.461,-58.87
1296.476,-58.4
1296.491,-58.12
1296.506,-58.64
1296.521,-58.94
1296.536,-58.21
1296.551,-58.2
1296.566,-58.44
1296.581,-58.69
1296.596,-58.83
1296.611,-58.53
1296.626,-58.55
1296.641,-59.1
1296.656,-59.04
1296.671,-58.6
1296.686,-58.36
1296.701,-58.93
1296.716,-59.42
1296.731,-58.85
1296.746,-58.48
1296.761,-59.05
1296.776,-59.36
1296.791,-59.32
1296.806,-58.7
1296.821,-58.71
1296.836,-59.03
1296.851,-59.47
1296.866,-58.87
1296.881,-58.77
1296.896,-58.84
1296.911,-59.38
1296.926,-59.36
1296.941,-58.91
1296.956,-58.82
1296.971,-59.25
1296.986,-59.39
1297.001,-58.92
1297.016,-58.41
1297.031,-58.85
1297.046,-59.08
1297.061,-58.98
1297.076,-58.68
1297.091,-58.94
1297.106,-59.35
1297.121,-58.87
1297.136,-58.3
1297.151,-58.68
1297.166,-59.25
1297.181,-59.27
1297.196,-58.84
1297.211,-58.68
1297.226,-59.13
1297.241,-59.05
1297.256,-58.55
1297.271,-58.4
1297.286,-58.46
1297.301,-58.81
1297.316,-58.36
1297.331,-58.07
1297.346,-58.59
1297.361,-58.67
1297.376,-58.58
1297.391,-58.25
1297.406,-58.25
1297.421,-58.54
1297.436,-58.59
1297.451,-58.21
1297.466,-58.19
1297.481,-58.55
1297.496,-58.76
1297.511,-58.33
1297.526,-57.85
1297.541,-58.0
1297.556,-58.57
1297.571,-58.27
1297.586,-58.05
1297.601,-58.04
1297.616,-58.26
1297.631,-58.14
1297.646,-57.95
1297.661,-57.65
1297.676,-58.0
1297.691,-58.26
1297.706,-57.91
1297.721,-57.53
1297.736,-57.8
1297.751,-58.26
1297.766,-58.38
1297.781,-57.72
1297.796,-57.67
1297.811,-58.28
1297.826,-58.04
1297.841,-57.91
1297.856,-57.76
1297.871,-57.71
1297.886,-58.28
1297.901,-58.02
1297.916,-57.78
1297.931,-58.03
1297.946,-58.21
1297.961,-58.25
1297.976,-58.21
1297.991,-57.87
1298.006,-58.38
1298.021,-58.59
1298.036,-58.18
1298.051,-58.23
1298.066,-58.19
1298.081,-58.2
1298.096,-58.24
1298.111,-57.81
1298.126,-57.94
1298.141,-58.4
1298.156,-57.91
1298.171,-57.68
1298.186,-57.68
1298.201,-57.61
1298.216,-58.03
1298.231,-57.71
1298.246,-57.54
1298.261,-58.16
1298.276,-57.99
1298.291,-58.08
1298.306,-58.18
1298.321,-58.28
1298.336,-58.92
1298.351,-58.62
1298.366,-58.19
1298.381,-58.6
1298.396,-58.82
1298.411,-58.75
1298.426,-58.52
1298.441,-58.58
1298.456,-58.62
1298.471,-59.15
1298.486,-58.61
1298.501,-58.53
1298.516,-58.86
1298.531,-59.33
1298.546,-59.24
1298.561,-58.86
1298.576,-58.84
1298.591,-59.55
1298.606,-59.39
1298.621,-58.77
1298.636,-59.15
1298.651,-59.5
1298.666,-59.45
1298.681,-59.27
1298.696,-58.82
1298.711,-58.92
1298.726,-59.47
1298.741,-58.88
1298.756,-58.62
1298.771,-58.61
1298.786,-58.62
1298.801,-58.96
1298.816,-58.24
1298.831,-58.3
1298.846,-58.97
1298.861,-58.7
1298.876,-58.52
1298.891,-58.21
1298.906,-58.74
1298.921,-59.23
1298.936,-58.87
1298.951,-58.56
1298.966,-58.74
1298.981,-59.17
1298.996,-59.12
1299.011,-58.69
1299.026,-58.55
1299.041,-58.69
1299.056,-58.93
1299.071,-58.4
1299.086,-58.45
1299.101,-58.77
1299.116,-59.03
1299.131,-58.71
1299.146,-58.24
1299.161,-58.41
1299.176,-58.83
1299.191,-58.54
1299.206,-58.27
1299.221,-58.06
1299.236,-58.62
1299.251,-58.82
1299.266,-58.57
1299.281,-58.5
1299.296,-58.84
1299.311,-58.99
1299.326,-58.79
1299.341,-58.14
1299.356,-58.23
1299.371,-58.39
1299.386,-58.51
1299.401,-58.16
1299.416,-58.06
1299.431,-58.43
1299.446,-58.44
1299.461,-58.05
1299.476,-57.77
1299.491,-58.03
1299.506,-58.26
1299.521,-58.37
1299.536,-58.06
1299.551,-58.09
1299.566,-58.39
1299.581,-58.77
1299.596,-58.17
1299.611,-57.97
1299.626,-58.05
1299.641,-58.26
1299.656,-58.22
1299.671,-58.1
1299.686,-58.0
1299.701,-58.52
1299.716,-58.55
1299.731,-58.03
1299.746,-58.06
1299.761,-58.2
1299.776,-58.23
1299.791,-58.15
1299.806,-57.86
1299.821,-58.3
1299.836,-58.56
1299.851,-58.05
1299.866,-58.06
1299.881,-58.15
1299.896,-58.33
1299.911,-58.41
1299.926,-58.02
1299.941,-58.08
1299.956,-58.21
1299.971,-58.31
1299.986,-57.78
1300.001,-57.94
1300.016,-57.94
1300.031,-58.07
1300.046,-58.37
1300.061,-57.94
1300.076,-58.07
1300.091,-58.53
1300.106,-58.23
1300.121,-57.78
1300.136,-57.9
1300.151,-57.87
1300.166,-58.46
1300.181,-58.2
1300.196,-57.77
1300.211,-58.27
1300.226,-58.69
1300.241,-58.22
1300.256,-57.93
1300.271,-57.68
1300.286,-57.88
1300.301,-58.07
1300.316,-57.57
1300.331,-57.46
1300.346,-57.87
1300.361,-57.76
1300.376,-57.85
1300.391,-57.62
1300.406,-57.48
1300.421,-57.93
1300.436,-57.96
1300.451,-57.48
1300.466,-57.87
1300.481,-58.11
1300.496,-58.06
1300.511,-57.84
1300.526,-57.87
1300.541,-57.92
1300.556,-58.3
1300.571,-57.96
1300.586,-57.68
1300.601,-58.08
1300.616,-58.12
1300.631,-58.28
1300.646,-57.95
1300.661,-57.76
1300.676,-58.11
1300.691,-58.16
1300.706,-57.78
1300.721,-57.77
1300.736,-58.15
1300.751,-58.03
1300.766,-58.0
1300.781,-57.68
1300.796,-58.11
1300.811,-58.27
1300.826,-58.0
1300.841,-57.84
1300.856,-58.24
1300.871,-58.0
1300.886,-58.14
1300.901,-57.84
1300.916,-57.77
1300.931,-57.99
1300.946,-57.68
1300.961,-57.59
1300.976,-57.79
1300.991,-57.88
1301.006,-57.94
1301.021,-57.86
1301.036,-57.87
1301.051,-57.98
1301.066,-58.02
1301.081,-57.91
1301.096,-57.8
1301.111,-57.68
1301.126,-58.22
1301.141,-58.0
1301.156,-58.12
1301.171,-58.12
1301.186,-58.11
1301.201,-58.19
1301.216,-58.09
1301.231,-57.68
1301.246,-57.99
1301.261,-58.22
1301.276,-58.04
1301.292,-57.99
1301.307,-57.95
1301.321,-58.08
1301.336,-58.03
1301.351,-57.7
1301.366,-57.86
1301.381,-58.28
1301.396,-58.01
1301.411,-58.14
1301.427,-58.18
1301.442,-58.2
1301.457,-58.63
1301.471,-58.24
1301.486,-57.99
1301.501,-58.31
1301.516,-58.53
1301.531,-58.05
1301.547,-57.96
1301.562,-58.04
1301.577,-57.94
1301.592,-58.02
1301.606,-57.52
1301.621,-57.7
1301.636,-58.08
1301.651,-58.1
1301.667,-57.98
1301.682,-57.96
1301.697,-58.14
1301.712,-58.59
1301.727,-58.35
1301.742,-57.96
1301.756,-58.36
1301.771,-58.45
1301.786,-58.5
1301.802,-58.25
1301.817,-58.58
1301.832,-58.51
1301.847,-58.57
1301.862,-58.04
1301.877,-58.27
1301.891,-58.49
1301.906,-58.54
1301.922,-58.39
1301.937,-58.32
1301.952,-58.4
1301.967,-58.38
1301.982,-57.98
1301.997,-57.96
1302.012,-57.97
1302.027,-58.08
1302.042,-57.91
1302.057,-57.74
1302.072,-57.9
1302.087,-58.0
1302.102,-57.81
1302.117,-57.79
1302.132,-57.55
1302.147,-57.81
1302.162,-57.89
1302.177,-57.77
1302.192,-57.83
1302.207,-58.02
1302.222,-57.82
1302.237,-57.91
1302.252,-57.62
1302.267,-57.79
1302.282,-57.94
1302.297,-57.86
1302.312,-57.84
1302.327,-58.13
1302.342,-58.03
1302.357,-58.11
1302.372,-57.94
1302.387,-57.78
1302.402,-57.96
1302.417,-57.99
1302.432,-57.85
1302.447,-57.92
1302.462,-57.58
1302.477,-57.6
1302.492,-57.88
1302.507,-57.54
1302.522,-57.68
1302.537,-57.8
1302.552,-57.83
1302.567,-57.66
1302.582,-58.03
1302.597,-57.79
1302.612,-57.95
1302.627,-58.16
1302.642,-57.9
1302.657,-58.05
1302.672,-58.03
1302.687,-57.79
1302.702,-57.94
1302.717,-57.71
1302.732,-57.7
1302.747,-57.9
1302.762,-57.58
1302.777,-57.9
1302.792,-57.96
1302.807,-57.88
1302.822,-57.58
1302.837,-57.91
1302.852,-57.69
1302.867,-57.71
1302.882,-57.84
1302.897,-57.72
1302.912,-58.06
1302.927,-58.0
1302.942,-57.71
1302.957,-58.0
1302.972,-58.06
1302.987,-58.02
1303.002,-58.16
1303.017,-58.26
1303.032,-58.55
1303.047,-58.61
1303.062,-58.46
1303.077,-58.26
1303.092,-58.5
1303.107,-58.31
1303.122,-58.34
1303.137,-58.71
1303.152,-58.61
1303.167,-58.78
1303.182,-58.6
1303.197,-58.3
1303.212,-58.52
1303.227,-58.56
1303.242,-58.58
1303.257,-59.04
1303.272,-58.96
1303.287,-59.23
1303.302,-59.41
1303.317,-59.14
1303.332,-58.99
1303.347,-59.32
1303.362,-59.22
1303.377,-59.41
1303.392,-59.79
1303.407,-59.49
1303.422,-59.82
1303.437,-59.55
1303.452,-59.19
1303.467,-59.68
1303.482,-59.66
1303.497,-59.2
1303.512,-59.6
1303.527,-59.45
1303.542,-59.24
1303.557,-59.32
1303.572,-59.06
1303.587,-58.93
1303.602,-59.37
1303.617,-59.39
1303.632,-59.11
1303.647,-59.41
1303.662,-59.0
1303.677,-59.05
1303.692,-59.52
1303.707,-59.35
1303.722,-59.52
1303.737,-59.3
1303.752,-59.12
1303.767,-59.61
1303.782,-59.43
1303.797,-59.08
1303.812,-59.14
1303.827,-59.6
1303.842,-58.98
1303.857,-59.15
1303.872,-59.19
1303.887,-59.12
1303.902,-59.4
1303.917,-58.85
1303.932,-58.84
1303.947,-59.46
1303.962,-59.33
1303.977,-59.09
1303.992,-59.24
1304.007,-59.3
1304.022,-59.51
1304.037,-58.95
1304.052,-58.85
1304.067,-59.04
1304.082,-59.4
1304.097,-58.81
1304.112,-58.89
1304.127,-59.36
1304.142,-59.45
1304.157,-59.13
1304.172,-58.94
1304.187,-59.0
1304.202,-59.4
1304.217,-59.25
1304.232,-59.04
1304.247,-59.23
1304.262,-59.45
1304.277,-59.41
1304.292,-58.68
1304.307,-58.6
1304.322,-58.78
1304.337,-58.76
1304.352,-58.49
1304.367,-58.35
1304.382,-58.67
1304.397,-58.55
1304.412,-58.28
1304.427,-58.01
1304.442,-58.45
1304.457,-58.64
1304.472,-58.38
1304.487,-58.33
1304.502,-58.65
1304.517,-58.86
1304.532,-58.5
1304.547,-58.41
1304.562,-58.49
1304.577,-59.03
1304.592,-58.88
1304.607,-58.58
1304.622,-58.68
1304.637,-59.11
1304.652,-58.87
1304.667,-58.55
1304.682,-58.64
1304.697,-58.83
1304.712,-58.69
1304.727,-58.16
1304.742,-58.3
1304.757,-58.48
1304.772,-58.79
1304.787,-58.35
1304.802,-58.38
1304.817,-58.83
1304.832,-58.44
1304.847,-58.31
1304.862,-58.14
1304.877,-58.61
1304.892,-58.83
1304.907,-58.22
1304.922,-58.3
1304.937,-58.69
1304.952,-58.86
1304.967,-58.28
1304.982,-58.08
1304.997,-58.32
1305.012,-58.79
1305.027,-58.23
1305.042,-58.07
1305.057,-58.48
1305.072,-58.71
1305.087,-58.58
1305.102,-58.48
1305.117,-58.75
1305.132,-58.99
1305.147,-58.57
1305.162,-58.32
1305.177,-58.61
1305.192,-58.95
1305.207,-58.67
1305.222,-58.28
1305.237,-58.34
1305.252,-58.68
1305.267,-58.45
1305.282,-57.98
1305.297,-58.25
1305.312,-58.65
1305.327,-58.8
1305.342,-58.34
1305.357,-58.29
1305.372,-58.46
1305.387,-58.93
1305.402,-58.46
1305.417,-58.45
1305.432,-58.61
1305.447,-58.78
1305.462,-58.7
1305.477,-58.25
1305.492,-58.34
1305.507,-58.69
1305.522,-58.66
1305.537,-58.56
1305.552,-58.64
1305.567,-58.94
1305.582,-58.98
1305.597,-58.67
1305.612,-58.62
1305.627,-59.03
1305.642,-59.03
1305.657,-58.81
1305.672,-58.72
1305.687,-59.13
1305.702,-59.08
1305.717,-58.89
1305.732,-58.96
1305.747,-59.18
1305.762,-59.7
1305.777,-59.47
1305.792,-59.22
1305.807,-59.39
1305.822,-59.38
1305.837,-59.39
1305.852,-59.42
1305.867,-59.6
1305.882,-59.85
1305.897,-59.34
1305.912,-59.81
1305.927,-59.55
1305.942,-59.49
1305.957,-59.43
1305.972,-59.36
1305.987,-59.54
1306.002,-59.7
1306.017,-59.81
1306.032,-59.58
1306.047,-59.79
1306.062,-59.44
1306.077,-59.28
1306.092,-59.23
1306.107,-59.34
1306.122,-59.13
1306.137,-59.0
1306.152,-59.1
1306.167,-59.87
1306.182,-59.48
1306.197,-59.0
1306.212,-59.51
1306.227,-59.66
1306.242,-59.65
1306.257,-59.36
1306.272,-59.79
1306.287,-59.89
1306.302,-59.95
1306.317,-59.29
1306.332,-59.3
1306.347,-60.07
1306.362,-59.75
1306.377,-59.91
1306.392,-59.73
1306.407,-59.81
1306.422,-59.7
1306.437,-59.66
1306.452,-59.08
1306.467,-59.39
1306.482,-59.68
1306.497,-59.43
1306.512,-59.43
1306.527,-59.51
1306.542,-59.17
1306.557,-59.23
1306.572,-58.98
1306.587,-58.86
1306.602,-59.29
1306.617,-59.08
1306.632,-58.77
1306.647,-58.96
1306.662,-58.7
1306.677,-58.68
1306.692,-58.75
1306.707,-58.77
1306.722,-59.07
1306.737,-59.33
1306.752,-58.96
1306.767,-58.87
1306.782,-58.94
1306.797,-58.89
1306.812,-58.87
1306.827,-58.89
1306.842,-59.05
1306.857,-58.88
1306.872,-59.0
1306.887,-58.36
1306.902,-58.65
1306.917,-58.53
1306.932,-58.43
1306.947,-58.58
1306.962,-58.53
1306.977,-58.39
1306.992,-58.35
1307.007,-58.36
1307.022,-57.93
1307.037,-58.4
1307.052,-58.33
1307.067,-58.23
1307.082,-58.63
1307.097,-58.56
1307.112,-58.28
1307.127,-58.45
1307.142,-58.67
1307.157,-58.51
1307.172,-58.32
1307.187,-57.96
1307.202,-58.2
1307.217,-58.39
1307.232,-58.23
1307.247,-58.09
1307.262,-58.31
1307.277,-58.26
1307.292,-58.14
1307.307,-57.93
1307.322,-58.02
1307.337,-58.0
1307.352,-57.93
1307.367,-57.93
1307.382,-57.97
1307.397,-58.12
1307.412,-57.98
1307.427,-57.85
1307.442,-57.94
1307.457,-58.48
1307.472,-58.51
1307.487,-58.38
1307.502,-58.44
1307.517,-58.49
1307.532,-58.34
1307.547,-58.29
1307.562,-58.19
1307.577,-58.69
1307.592,-58.81
1307.607,-58.15
1307.622,-58.31
1307.637,-58.8
1307.652,-58.76
1307.667,-58.79
1307.682,-59.03
1307.697,-58.98
1307.712,-59.05
1307.727,-58.85
1307.742,-58.41
1307.757,-58.77
1307.772,-59.19
1307.787,-58.56
1307.802,-58.37
1307.817,-58.67
1307.832,-58.85
1307.847,-58.7
1307.862,-58.51
1307.877,-58.46
1307.892,-58.94
1307.907,-59.17
1307.922,-58.79
1307.937,-58.99
1307.952,-59.69
1307.967,-59.31
1307.982,-58.84
1307.997,-58.91
1308.012,-59.11
1308.027,-59.75
1308.042,-59.24
1308.057,-59.07
1308.072,-59.64
1308.087,-59.76
1308.102,-58.98
1308.117,-59.05
1308.132,-59.68
1308.147,-59.3
1308.162,-59.2
1308.177,-58.69
1308.192,-59.15
1308.207,-59.82
1308.222,-59.23
1308.237,-58.86
1308.252,-59.35
1308.267,-59.6
1308.282,-58.91
1308.297,-58.83
1308.312,-59.41
1308.327,-59.66
1308.342,-59.59
1308.357,-59.13
1308.372,-59.14
1308.387,-59.8
1308.402,-59.34
1308.417,-58.9
1308.432,-59.33
1308.447,-59.99
1308.462,-59.45
1308.477,-58.84
1308.492,-58.93
1308.507,-59.43
1308.522,-59.36
1308.537,-58.87
1308.552,-58.79
1308.567,-59.52
1308.582,-59.35
1308.597,-58.63
1308.612,-59.11
1308.627,-59.88
1308.642,-59.33
1308.657,-58.92
1308.672,-58.85
1308.687,-58.97
1308.702,-59.67
1308.717,-59.04
1308.732,-58.7
1308.747,-59.25
1308.762,-59.45
1308.777,-58.58
1308.792,-58.58
1308.807,-59.25
1308.822,-59.13
1308.837,-59.13
1308.852,-58.42
1308.867,-58.71
1308.882,-59.21
1308.897,-58.97
1308.912,-58.44
1308.927,-58.77
1308.942,-59.17
1308.957,-58.53
1308.972,-58.29
1308.987,-58.46
1309.002,-59.02
1309.017,-59.23
1309.032,-58.59
1309.047,-58.41
1309.062,-58.89
1309.077,-58.63
1309.092,-58.08
1309.107,-58.44
1309.122,-58.86
1309.137,-58.88
1309.152,-58.64
1309.167,-58.45
1309.182,-58.86
1309.198,-59.14
1309.212,-58.61
1309.227,-58.41
1309.242,-58.87
1309.257,-58.92
1309.272,-58.49
1309.287,-58.59
1309.302,-58.75
1309.318,-58.81
1309.333,-58.52
1309.347,-58.46
1309.362,-58.54
1309.377,-59.16
1309.392,-58.56
1309.407,-58.28
1309.422,-58.71
1309.438,-58.73
1309.453,-58.63
1309.468,-58.58
1309.483,-58.62
1309.497,-58.84
1309.512,-58.63
1309.527,-58.39
1309.542,-58.53
1309.557,-59.16
1309.573,-58.63
1309.588,-58.4
1309.603,-58.59
1309.618,-58.82
1309.632,-58.46
1309.647,-58.38
1309.662,-58.48
1309.677,-58.55
1309.693,-58.52
1309.708,-57.79
1309.723,-58.01
1309.738,-58.58
1309.753,-58.22
1309.768,-57.79
1309.782,-58.0
1309.797,-58.32
1309.813,-58.23
1309.828,-58.06
1309.843,-57.77
1309.858,-58.33
1309.873,-58.41
1309.888,-57.98
1309.903,-58.04
1309.917,-58.64
1309.932,-58.34
1309.948,-57.84
1309.963,-57.83
1309.978,-58.03
1309.993,-58.42
1310.008,-57.96
1310.023,-57.7
1310.038,-57.95
1310.053,-58.2
1310.068,-57.73
1310.083,-57.83
1310.098,-58.44
1310.113,-58.29
1310.128,-58.39
1310.143,-57.85
1310.158,-57.74
1310.173,-58.44
1310.188,-58.26
1310.203,-58.0
1310.218,-58.16
1310.233,-58.6
1310.248,-58.29
1310.263,-57.86
1310.278,-58.28
1310.293,-58.31
1310.308,-58.5
1310.323,-57.96
1310.338,-57.83
1310.353,-58.25
1310.368,-58.46
1310.383,-57.87
1310.398,-57.99
1310.413,-58.45
1310.428,-58.07
1310.443,-57.92
1310.458,-57.91
1310.473,-57.92
1310.488,-58.45
1310.503,-57.98
1310.518,-57.77
1310.533,-58.28
1310.548,-58.45
1310.563,-57.82
1310.578,-57.83
1310.593,-58.32
1310.608,-58.41
1310.623,-57.9
1310.638,-57.7
1310.653,-58.03
1310.668,-58.29
1310.683,-58.12
1310.698,-57.93
1310.713,-58.21
1310.728,-58.39
1310.743,-57.96
1310.758,-57.89
1310.773,-58.19
1310.788,-58.62
1310.803,-58.33
1310.818,-57.96
1310.833,-58.45
1310.848,-59.02
1310.863,-58.75
1310.878,-58.33
1310.893,-58.66
1310.908,-58.97
1310.923,-58.41
1310.938,-58.3
1310.953,-58.56
1310.968,-58.98
1310.983,-58.61
1310.998,-58.22
1311.013,-58.88
1311.028,-59.21
1311.043,-59.16
1311.058,-58.68
1311.073,-59.01
1311.088,-59.51
1311.103,-58.78
1311.118,-58.7
1311.133,-58.69
1311.148,-59.14
1311.163,-59.14
1311.178,-58.6
1311.193,-58.52
1311.208,-59.04
1311.223,-58.93
1311.238,-58.32
1311.253,-58.42
1311.268,-59.08
1311.283,-58.55
1311.298,-58.38
1311.313,-58.36
1311.328,-58.79
1311.343,-58.86
1311.358,-58.48
1311.373,-58.37
1311.388,-58.64
1311.403,-58.9
1311.418,-58.41
1311.433,-58.47
1311.448,-59.18
1311.463,-58.88
1311.478,-58.54
1311.493,-58.33
1311.508,-58.74
1311.523,-58.72
1311.538,-58.27
1311.553,-57.84
1311.568,-58.12
1311.583,-58.56
1311.598,-57.98
1311.613,-57.66
1311.628,-58.12
1311.643,-58.49
1311.658,-57.97
1311.673,-57.79
1311.688,-58.08
1311.703,-58.06
1311.718,-57.82
1311.733,-57.48
1311.748,-57.54
1311.763,-57.95
1311.778,-57.82
1311.793,-57.44
1311.808,-57.67
1311.823,-57.96
1311.838,-57.46
1311.853,-57.24
1311.868,-57.16
1311.883,-57.5
1311.898,-57.34
1311.913,-57.01
1311.928,-57.11
1311.943,-57.42
1311.958,-57.38
1311.973,-57.07
1311.988,-57.37
1312.003,-57.82
1312.018,-57.33
1312.033,-57.11
1312.048,-57.29
1312.063,-57.46
1312.078,-57.38
1312.093,-57.0
1312.108,-57.06
1312.123,-57.42
1312.138,-57.29
1312.153,-56.9
1312.168,-57.06
1312.183,-57.33
1312.198,-57.34
1312.213,-57.0
1312.228,-57.13
1312.243,-57.25
1312.258,-57.45
1312.273,-57.05
1312.288,-57.05
1312.303,-57.5
1312.318,-57.44
1312.333,-57.09
1312.348,-57.27
1312.363,-57.58
1312.378,-57.43
1312.393,-57.35
1312.408,-57.29
1312.423,-57.49
1312.438,-57.65
1312.453,-57.21
1312.468,-57.12
1312.483,-57.69
1312.498,-57.54
1312.513,-57.1
1312.528,-57.24
1312.543,-57.51
1312.558,-57.61
1312.573,-57.58
1312.588,-57.55
1312.603,-57.67
1312.618,-57.73
1312.633,-57.81
1312.648,-57.47
1312.663,-58.08
1312.678,-58.09
1312.693,-57.65
1312.708,-57.77
1312.723,-58.17
1312.738,-58.25
1312.753,-58.26
1312.768,-58.17
1312.783,-58.33
1312.798,-58.22
1312.813,-58.08
1312.828,-58.09
1312.843,-58.41
1312.858,-58.55
1312.873,-58.29
1312.888,-58.11
1312.903,-58.61
1312.918,-58.66
1312.933,-58.41
1312.948,-58.16
1312.963,-58.54
1312.978,-58.53
1312.993,-58.44
1313.008,-58.38
1313.023,-58.61
1313.038,-58.71
1313.053,-58.34
1313.068,-58.04
1313.083,-58.29
1313.098,-58.66
1313.113,-58.52
1313.128,-58.23
1313.143,-58.53
1313.158,-58.58
1313.173,-58.32
1313.188,-58.13
1313.203,-58.57
1313.218,-58.61
1313.233,-58.19
1313.248,-58.5
1313.263,-58.5
1313.278,-58.48
1313.293,-58.76
1313.308,-58.27
1313.323,-58.49
1313.338,-58.68
1313.353,-58.46
1313.368,-58.27
1313.383,-58.78
1313.398,-58.74
1313.413,-58.41
1313.428,-58.55
1313.443,-58.57
1313.458,-58.45
1313.473,-58.55
1313.488,-58.4
1313.503,-58.58
1313.518,-58.96
1313.533,-58.61
1313.548,-58.33
1313.563,-58.7
1313.578,-58.72
1313.593,-58.46
1313.608,-58.36
1313.623,-58.87
1313.638,-58.63
1313.653,-58.68
1313.668,-58.61
1313.683,-58.62
1313.698,-59.01
1313.713,-58.59
1313.728,-58.13
1313.743,-58.59
1313.758,-58.73
1313.773,-58.23
1313.788,-58.11
1313.803,-58.65
1313.818,-58.55
1313.833,-58.16
1313.848,-58.23
1313.863,-58.03
1313.878,-58.48
1313.893,-58.41
1313.908,-57.89
1313.923,-58.36
1313.938,-58.67
1313.953,-58.62
1313.968,-58.14
1313.983,-58.56
1313.998,-58.53
1314.013,-58.14
1314.028,-58.12
1314.043,-58.09
1314.058,-58.35
1314.073,-58.39
1314.088,-58.13
1314.103,-58.04
1314.118,-58.39
1314.133,-58.32
1314.148,-57.9
1314.163,-58.14
1314.178,-58.45
1314.193,-58.26
1314.208,-57.99
1314.223,-57.95
1314.238,-58.45
1314.253,-58.4
1314.268,-57.96
1314.283,-58.1
1314.298,-58.44
1314.313,-58.44
1314.328,-57.98
1314.343,-57.98
1314.358,-58.37
1314.373,-58.27
1314.388,-57.85
1314.403,-57.68
1314.418,-58.03
1314.433,-58.05
1314.448,-57.64
1314.463,-57.77
1314.478,-58.24
1314.493,-58.08
1314.508,-57.87
1314.523,-57.66
1314.538,-58.14
1314.553,-58.38
1314.568,-57.93
1314.583,-57.85
1314.598,-58.03
1314.613,-58.47
1314.628,-57.96
1314.643,-57.87
1314.658,-58.27
1314.673,-58.13
1314.688,-57.87
1314.703,-57.55
1314.718,-57.95
1314.733,-58.28
1314.748,-57.8
1314.763,-57.83
1314.778,-58.57
1314.793,-58.9
1314.808,-58.35
1314.823,-58.39
1314.838,-59.08
1314.853,-59.18
1314.868,-58.97
1314.883,-58.62
1314.898,-59.19
1314.913,-59.41
1314.928,-58.62
1314.943,-58.52
1314.958,-58.91
1314.973,-58.85
1314.988,-58.55
1315.003,-58.7
1315.018,-58.99
1315.033,-59.06
1315.048,-59.03
1315.063,-58.7
1315.078,-58.94
1315.093,-59.37
1315.108,-59.26
1315.123,-58.83
1315.138,-59.28
1315.153,-59.69
1315.168,-59.17
1315.183,-59.05
1315.198,-59.91
1315.213,-59.67
1315.228,-59.97
1315.243,-59.28
1315.258,-59.2
1315.273,-59.82
1315.288,-59.52
1315.303,-58.82
1315.318,-59.06
1315.333,-59.61
1315.348,-59.41
1315.363,-59.03
1315.378,-59.57
1315.393,-59.34
1315.408,-59.52
1315.423,-59.67
1315.438,-59.51
1315.453,-60.18
1315.468,-60.1
1315.483,-59.4
1315.498,-59.73
1315.513,-59.92
1315.528,-59.75
1315.543,-59.43
1315.558,-59.79
1315.573,-59.88
1315.588,-59.71
1315.603,-60.07
1315.618,-59.97
1315.633,-59.82
1315.648,-59.89
1315.663,-59.42
1315.678,-59.41
1315.693,-59.91
1315.708,-59.87
1315.723,-59.42
1315.738,-59.52
1315.753,-59.97
1315.768,-59.68
1315.783,-59.23
1315.798,-58.99
1315.813,-58.87
1315.828,-58.83
1315.843,-58.9
1315.858,-58.73
1315.873,-59.15
1315.888,-59.23
1315.903,-58.56
1315.918,-58.69
1315.933,-59.24
1315.948,-59.05
1315.963,-58.68
1315.978,-59.12
1315.993,-59.15
1316.008,-58.79
1316.023,-58.83
1316.038,-58.8
1316.053,-58.74
1316.068,-58.72
1316.083,-58.87
1316.098,-58.81
1316.113,-59.22
1316.128,-59.3
1316.143,-58.93
1316.158,-58.9
1316.173,-59.11
1316.188,-58.93
1316.203,-58.63
1316.218,-59.11
1316.233,-58.7
1316.248,-58.8
1316.263,-59.0
1316.278,-58.79
1316.293,-58.79
1316.308,-58.93
1316.323,-58.69
1316.338,-58.71
1316.353,-58.99
1316.368,-58.85
1316.383,-58.6
1316.398,-59.19
1316.413,-59.16
1316.428,-58.87
1316.443,-59.01
1316.458,-58.84
1316.473,-58.61
1316.488,-58.84
1316.503,-59.01
1316.518,-58.94
1316.533,-59.37
1316.548,-59.36
1316.563,-58.68
1316.578,-58.83
1316.593,-59.42
1316.608,-59.07
1316.623,-58.6
1316.638,-58.96
1316.653,-58.95
1316.668,-59.03
1316.683,-59.28
1316.698,-59.2
1316.713,-59.14
1316.728,-59.28
1316.743,-59.3
1316.758,-59.18
1316.773,-59.22
1316.788,-59.36
1316.803,-58.97
1316.818,-59.39
1316.833,-59.54
1316.848,-59.05
1316.863,-58.95
1316.878,-58.95
1316.893,-58.65
1316.908,-58.66
1316.923,-59.03
1316.938,-58.75
1316.953,-58.6
1316.968,-58.73
1316.983,-58.81
1316.998,-58.65
1317.013,-58.72
1317.028,-58.92
1317.043,-59.04
1317.058,-58.95
1317.073,-59.0
1317.088,-58.67
1317.103,-58.84
1317.118,-58.52
1317.133,-58.26
1317.148,-58.44
1317.163,-58.66
1317.178,-58.34
1317.193,-58.32
1317.208,-58.61
1317.224,-58.33
1317.238,-58.17
1317.253,-58.36
1317.268,-58.67
1317.283,-58.56
1317.298,-58.42
1317.313,-58.56
1317.328,-59.19
1317.344,-58.77
1317.359,-58.56
1317.373,-58.5
1317.388,-58.75
1317.403,-58.55
1317.418,-58.45
1317.433,-58.47
1317.448,-58.57
1317.464,-58.44
1317.479,-58.4
1317.494,-58.65
1317.509,-58.65
1317.523,-58.42
1317.538,-58.02
1317.553,-58.1
1317.568,-58.7
1317.583,-58.25
1317.599,-57.94
1317.614,-58.01
1317.629,-58.42
1317.644,-58.3
1317.658,-58.01
1317.673,-58.16
1317.688,-58.36
1317.703,-57.95
1317.719,-57.81
1317.734,-58.13
1317.749,-58.25
1317.764,-57.94
1317.779,-57.84
1317.794,-58.13
1317.808,-58.29
1317.823,-57.98
1317.839,-57.86
1317.854,-57.96
1317.869,-58.34
1317.884,-58.1
1317.899,-58.04
1317.914,-58.48
1317.929,-58.45
1317.944,-58.15
1317.958,-58.26
1317.974,-58.6
1317.989,-58.45
1318.004,-58.18
1318.019,-58.34
1318.034,-58.28
1318.049,-58.12
1318.064,-58.18
1318.079,-58.12
1318.094,-58.34
1318.109,-58.52
1318.124,-58.07
1318.139,-58.16
1318.154,-58.62
1318.169,-58.46
1318.184,-58.22
1318.199,-58.51
1318.214,-58.77
1318.229,-58.42
1318.244,-58.43
1318.259,-58.44
1318.274,-58.27
1318.289,-58.33
1318.304,-58.37
1318.319,-58.31
1318.334,-58.17
1318.349,-58.4
1318.364,-58.03
1318.379,-58.35
1318.394,-58.66
1318.409,-58.29
1318.424,-58.07
1318.439,-58.24
1318.454,-58.59
1318.469,-58.41
1318.484,-58.51
1318.499,-58.36
1318.514,-58.25
1318.529,-58.49
1318.544,-58.48
1318.559,-58.5
1318.574,-58.51
1318.589,-58.79
1318.604,-58.71
1318.619,-59.09
1318.634,-59.19
1318.649,-58.65
1318.664,-58.63
1318.679,-59.12
1318.694,-59.01
1318.709,-58.73
1318.724,-58.91
1318.739,-58.76
1318.754,-58.75
1318.769,-58.75
1318.784,-58.87
1318.799,-58.55
1318.814,-58.8
1318.829,-58.81
1318.844,-58.67
1318.859,-58.89
1318.874,-59.01
1318.889,-58.66
1318.904,-58.56
1318.919,-58.63
1318.934,-58.57
1318.949,-58.43
1318.964,-58.44
1318.979,-58.47
1318.994,-58.43
1319.009,-58.89
1319.024,-58.72
1319.039,-58.77
1319.054,-59.06
1319.069,-59.05
1319.084,-58.91
1319.099,-58.94
1319.114,-58.87
1319.129,-59.11
1319.144,-59.12
1319.159,-59.07
1319.174,-58.88
1319.189,-58.99
1319.204,-58.98
1319.219,-58.72
1319.234,-59.04
1319.249,-58.76
1319.264,-58.93
1319.279,-58.78
1319.294,-58.78
1319.309,-58.78
1319.324,-58.75
1319.339,-58.69
1319.354,-58.77
1319.369,-58.71
1319.384,-58.85
1319.399,-58.6
1319.414,-58.72
1319.429,-58.67
1319.444,-58.8
1319.459,-58.83
1319.474,-58.6
1319.489,-58.35
1319.504,-58.78
1319.519,-59.13
1319.534,-58.6
1319.549,-58.52
1319.564,-58.64
1319.579,-58.42
1319.594,-58.51
1319.609,-58.4
1319.624,-58.31
1319.639,-58.32
1319.654,-58.27
1319.669,-58.21
1319.684,-58.22
1319.699,-58.24
1319.714,-58.27
1319.729,-58.18
1319.744,-58.7
1319.759,-58.62
1319.774,-58.3
1319.789,-58.38
1319.804,-58.98
1319.819,-58.61
1319.834,-58.3
1319.849,-58.41
1319.864,-58.73
1319.879,-58.7
1319.894,-58.45
1319.909,-58.53
1319.924,-59.04
1319.939,-58.73
1319.954,-58.48
1319.969,-58.76
1319.984,-59.01
1319.999,-58.73
1320.014,-58.15
1320.029,-58.52
1320.044,-59.02
1320.059,-58.35
1320.074,-57.99
1320.089,-58.48
1320.104,-58.89
1320.119,-58.96
1320.134,-58.5
1320.149,-58.6
1320.164,-58.76
1320.179,-58.74
1320.194,-58.45
1320.209,-58.49
1320.224,-58.94
1320.239,-58.47
1320.254,-58.44
1320.269,-58.61
1320.284,-59.15
1320.299,-58.67
1320.314,-58.34
1320.329,-58.85
1320.344,-59.09
1320.359,-58.41
1320.374,-58.45
1320.389,-58.55
1320.404,-58.88
1320.419,-58.61
1320.434,-58.57
1320.449,-58.73
1320.464,-58.7
1320.479,-58.56
1320.494,-58.69
1320.509,-58.76
1320.524,-58.61
1320.539,-58.37
1320.554,-58.39
1320.569,-58.75
1320.584,-58.91
1320.599,-58.24
1320.614,-58.36
1320.629,-58.87
1320.644,-58.44
1320.659,-58.22
1320.674,-58.63
1320.689,-59.07
1320.704,-58.52
1320.719,-58.45
1320.734,-58.57
1320.749,-58.53
1320.764,-58.44
1320.779,-58.22
1320.794,-58.42
1320.809,-58.42
1320.824,-58.24
1320.839,-58.2
1320.854,-58.36
1320.869,-58.64
1320.884,-58.21
1320.899,-58.15
1320.914,-58.65
1320.929,-58.36
1320.944,-58.01
1320.959,-58.34
1320.974,-58.79
1320.989,-58.32
1321.004,-58.18
1321.019,-58.74
1321.034,-58.77
1321.049,-58.16
1321.064,-58.3
1321.079,-59.05
1321.094,-59.02
1321.109,-58.94
1321.124,-58.22
1321.139,-58.26
1321.154,-58.7
1321.169,-58.63
1321.184,-58.08
1321.199,-58.41
1321.214,-58.92
1321.229,-58.28
1321.244,-58.01
1321.259,-58.44
1321.274,-58.7
1321.289,-58.21
1321.304,-58.33
1321.319,-58.89
1321.334,-58.67
1321.349,-58.21
1321.364,-58.42
1321.379,-58.91
1321.394,-58.85
1321.409,-58.39
1321.424,-58.44
1321.439,-58.89
1321.454,-58.73
1321.469,-58.46
1321.484,-58.2
1321.499,-58.63
1321.514,-58.67
1321.529,-58.13
1321.544,-58.29
1321.559,-58.88
1321.574,-58.58
1321.589,-58.13
1321.604,-58.65
1321.619,-59.03
1321.634,-58.42
1321.649,-58.34
1321.664,-59.04
1321.679,-59.01
1321.694,-58.35
1321.709,-58.56
1321.724,-58.86
1321.739,-58.85
1321.754,-58.68
1321.769,-58.22
1321.784,-58.58
1321.799,-59.14
1321.814,-58.43
1321.829,-58.4
1321.844,-59.03
1321.859,-59.0
1321.874,-58.43
1321.889,-58.42
1321.904,-58.91
1321.919,-58.52
1321.934,-58.29
1321.949,-58.61
1321.964,-58.78
1321.979,-58.2
1321.994,-58.28
1322.009,-58.91
1322.024,-58.62
1322.039,-58.4
1322.054,-58.45
1322.069,-58.85
1322.084,-58.78
1322.099,-58.33
1322.114,-57.81
1322.129,-58.29
1322.144,-58.64
1322.159,-58.19
1322.174,-57.99
1322.189,-58.54
1322.204,-58.44
1322.219,-57.94
1322.234,-58.2
1322.249,-58.75
1322.264,-58.51
1322.279,-58.18
1322.294,-58.77
1322.309,-58.84
1322.324,-58.94
1322.339,-58.57
1322.354,-58.6
1322.369,-58.89
1322.384,-58.8
1322.399,-58.52
1322.414,-58.73
1322.429,-59.13
1322.444,-58.53
1322.459,-58.5
1322.474,-58.63
1322.489,-59.28
1322.504,-58.86
1322.519,-58.46
1322.534,-58.88
1322.549,-59.3
1322.564,-58.53
1322.579,-58.61
1322.594,-59.32
1322.609,-59.22
1322.624,-59.1
1322.639,-59.06
1322.654,-59.33
1322.669,-59.11
1322.684,-58.88
1322.699,-58.99
1322.714,-59.08
1322.729,-59.14
1322.744,-58.9
1322.759,-58.77
1322.774,-59.42
1322.789,-59.61
1322.804,-58.93
1322.819,-59.04
1322.834,-59.97
1322.849,-59.37
1322.864,-59.08
1322.879,-59.54
1322.894,-60.06
1322.909,-59.36
1322.924,-59.25
1322.939,-59.86
1322.954,-59.79
1322.969,-59.21
1322.984,-59.33
1322.999,-59.28
1323.014,-59.3
1323.029,-59.21
1323.044,-58.95
1323.059,-59.32
1323.074,-59.62
1323.089,-58.82
1323.104,-58.7
1323.119,-59.63
1323.134,-59.44
1323.149,-58.91
1323.164,-59.25
1323.179,-59.89
1323.194,-59.49
1323.209,-59.03
1323.224,-59.6
1323.239,-59.97
1323.254,-59.38
1323.269,-59.31
1323.284,-59.76
1323.299,-59.4
1323.314,-59.14
1323.329,-58.71
1323.344,-59.2
1323.359,-59.18
1323.374,-59.07
1323.389,-58.48
1323.404,-58.79
1323.419,-59.33
1323.434,-58.57
1323.449,-58.5
1323.464,-59.23
1323.479,-59.18
1323.494,-58.73
1323.509,-58.94
1323.524,-59.53
1323.539,-59.12
1323.554,-58.7
1323.569,-59.37
1323.584,-59.57
1323.599,-58.95
1323.614,-58.63
1323.629,-58.44
1323.644,-58.73
1323.659,-58.61
1323.674,-58.51
1323.689,-58.82
1323.704,-58.74
1323.719,-58.49
1323.734,-58.15
1323.749,-58.29
1323.764,-59.04
1323.779,-58.63
1323.794,-58.22
1323.809,-58.72
1323.824,-59.22
1323.839,-58.4
1323.854,-58.16
1323.869,-58.71
1323.884,-58.75
1323.899,-58.11
1323.914,-58.27
1323.929,-59.02
1323.944,-58.46
1323.959,-58.14
1323.974,-58.63
1323.989,-58.9
1324.004,-58.88
1324.019,-58.44
1324.034,-58.92
1324.049,-59.09
1324.064,-58.72
1324.079,-58.34
1324.094,-58.95
1324.109,-59.07
1324.124,-58.66
1324.139,-58.34
1324.154,-58.7
1324.169,-59.06
1324.184,-58.45
1324.199,-58.16
1324.214,-58.88
1324.229,-58.72
1324.244,-58.1
1324.259,-58.08
1324.274,-58.45
1324.289,-58.33
1324.304,-58.04
1324.319,-58.41
1324.334,-58.86
1324.349,-58.22
1324.364,-58.08
1324.379,-58.36
1324.394,-58.72
1324.409,-58.62
1324.424,-58.31
1324.439,-58.85
1324.454,-59.05
1324.469,-58.51
1324.484,-58.57
1324.499,-58.92
1324.514,-59.12
1324.529,-58.58
1324.544,-58.38
1324.559,-58.64
1324.574,-58.66
1324.589,-58.39
1324.604,-58.33
1324.619,-58.97
1324.634,-59.0
1324.649,-58.42
1324.664,-58.73
1324.679,-59.12
1324.694,-58.74
1324.709,-58.59
1324.724,-58.84
1324.739,-59.09
1324.754,-59.13
1324.769,-58.59
1324.784,-58.69
1324.799,-59.23
1324.814,-58.72
1324.829,-58.05
1324.844,-58.57
1324.859,-58.97
1324.874,-58.42
1324.889,-58.01
1324.904,-58.26
1324.919,-58.67
1324.934,-58.19
1324.949,-58.01
1324.964,-58.25
1324.979,-58.39
1324.994,-58.11
1325.009,-58.19
1325.024,-58.51
1325.039,-58.33
1325.054,-57.94
1325.069,-58.07
1325.084,-58.53
1325.099,-58.24
1325.114,-58.0
1325.129,-57.9
1325.144,-58.41
1325.159,-58.25
1325.174,-57.67
1325.189,-57.92
1325.204,-58.38
1325.219,-57.86
1325.234,-57.66
1325.25,-58.32
1325.264,-58.49
1325.279,-58.45
1325.294,-58.12
1325.309,-58.27
1325.324,-58.53
1325.339,-58.02
1325.354,-58.06
1325.37,-58.51
1325.385,-58.6
1325.4,-58.12
1325.414,-58.12
1325.429,-58.44
1325.444,-58.07
1325.459,-57.73
1325.474,-57.87
1325.49,-58.05
1325.505,-57.84
1325.52,-57.43
1325.535,-57.52
1325.549,-58.03
1325.564,-57.91
1325.579,-57.6
1325.594,-57.85
1325.609,-58.03
1325.625,-57.6
1325.64,-57.64
1325.655,-58.16
1325.67,-57.93
1325.685,-57.44
1325.699,-57.5
1325.714,-57.85
1325.729,-58.16
1325.745,-57.73
1325.76,-57.67
1325.775,-57.95
1325.79,-58.0
1325.805,-57.55
1325.82,-57.51
1325.834,-58.16
1325.849,-57.88
1325.865,-57.49
1325.88,-57.7
1325.895,-58.05
1325.91,-58.03
1325.925,-57.69
1325.94,-57.94
1325.955,-58.16
1325.97,-58.08
1325.984,-57.95
1326.0,-58.17
1326.015,-58.11
1326.03,-57.73
1326.045,-57.56
1326.06,-58.02
1326.075,-58.05
1326.09,-57.59
1326.105,-57.41
1326.12,-57.83
1326.135,-57.89
1326.15,-57.48
1326.165,-57.77
1326.18,-58.1
1326.195,-57.74
1326.21,-57.48
1326.225,-57.93
1326.24,-58.13
1326.255,-57.65
1326.27,-57.86
1326.285,-57.96
1326.3,-57.96
1326.315,-57.96
1326.33,-57.87
1326.345,-58.01
1326.36,-58.14
1326.375,-57.85
1326.39,-57.5
1326.405,-57.96
1326.42,-58.08
1326.435,-57.73
1326.45,-57.79
1326.465,-58.37
1326.48,-58.32
1326.495,-57.94
1326.51,-58.31
1326.525,-58.57
1326.54,-58.27
1326.555,-58.09
1326.57,-58.55
1326.585,-58.7
1326.6,-58.29
1326.615,-58.39
1326.63,-58.84
1326.645,-58.53
1326.66,-58.01
1326.675,-58.42
1326.69,-58.75
1326.705,-58.46
1326.72,-58.08
1326.735,-58.25
1326.75,-58.27
1326.765,-58.29
1326.78,-58.27
1326.795,-58.26
1326.81,-58.33
1326.825,-58.43
1326.84,-58.46
1326.855,-58.48
1326.87,-58.53
1326.885,-58.61
1326.9,-58.76
1326.915,-58.76
1326.93,-58.93
1326.945,-58.78
1326.96,-58.45
1326.975,-59.01
1326.99,-58.8
1327.005,-58.27
1327.02,-58.59
1327.035,-59.1
1327.05,-58.84
1327.065,-58.54
1327.08,-58.85
1327.095,-59.03
1327.11,-58.99
1327.125,-58.93
1327.14,-59.24
1327.155,-59.52
1327.17,-58.96
1327.185,-59.24
1327.2,-59.43
1327.215,-59.42
1327.23,-59.22
1327.245,-59.28
1327.26,-59.26
1327.275,-59.01
1327.29,-58.79
1327.305,-58.91
1327.32,-58.97
1327.335,-58.8
1327.35,-58.91
1327.365,-58.44
1327.38,-58.39
1327.395,-58.76
1327.41,-58.63
1327.425,-58.32
1327.44,-58.51
1327.455,-58.8
1327.47,-58.41
1327.485,-58.28
1327.5,-58.63
1327.515,-58.64
1327.53,-58.41
1327.545,-58.46
1327.56,-58.69
1327.575,-58.35
1327.59,-58.57
1327.605,-58.54
1327.62,-58.25
1327.635,-58.34
1327.65,-58.46
1327.665,-58.42
1327.68,-58.22
1327.695,-58.49
1327.71,-58.5
1327.725,-58.6
1327.74,-58.49
1327.755,-58.72
1327.77,-58.68
1327.785,-58.58
1327.8,-58.7
1327.815,-58.71
1327.83,-58.66
1327.845,-58.61
1327.86,-58.65
1327.875,-58.65
1327.89,-58.64
1327.905,-58.54
1327.92,-58.6
1327.935,-58.46
1327.95,-58.35
1327.965,-58.88
1327.98,-58.45
1327.995,-58.36
1328.01,-58.76
1328.025,-58.72
1328.04,-58.15
1328.055,-58.5
1328.07,-59.05
1328.085,-58.57
1328.1,-58.44
1328.115,-58.68
1328.13,-58.9
1328.145,-58.34
1328.16,-58.18
1328.175,-58.83
1328.19,-58.45
1328.205,-58.59
1328.22,-58.58
1328.235,-58.43
1328.25,-58.56
1328.265,-58.75
1328.28,-58.7
1328.295,-58.56
1328.31,-58.8
1328.325,-58.82
1328.34,-58.73
1328.355,-58.46
1328.37,-58.91
1328.385,-59.08
1328.4,-58.99
1328.415,-58.96
1328.43,-59.21
1328.445,-59.16
1328.46,-58.9
1328.475,-59.16
1328.49,-59.21
1328.505,-58.97
1328.52,-58.67
1328.535,-58.78
1328.55,-58.86
1328.565,-58.61
1328.58,-58.98
1328.595,-58.73
1328.61,-58.57
1328.625,-58.86
1328.64,-59.07
1328.655,-58.63
1328.67,-58.72
1328.685,-59.07
1328.7,-58.95
1328.715,-58.73
1328.73,-59.08
1328.745,-59.3
1328.76,-58.94
1328.775,-58.82
1328.79,-59.11
1328.805,-58.89
1328.82,-59.12
1328.835,-59.38
1328.85,-58.98
1328.865,-58.59
1328.88,-59.03
1328.895,-59.13
1328.91,-58.88
1328.925,-58.85
1328.94,-59.45
1328.955,-59.29
1328.97,-58.7
1328.985,-58.89
1329.0,-59.19
1329.015,-58.97
1329.03,-58.55
1329.045,-59.29
1329.06,-59.43
1329.075,-58.65
1329.09,-58.51
1329.105,-58.97
1329.12,-58.89
1329.135,-58.35
1329.15,-58.75
1329.165,-59.18
1329.18,-58.58
1329.195,-58.58
1329.21,-58.67
1329.225,-58.77
1329.24,-58.72
1329.255,-58.56
1329.27,-58.76
1329.285,-58.63
1329.3,-58.72
1329.315,-58.68
1329.33,-58.96
1329.345,-58.84
1329.36,-58.94
1329.375,-58.86
1329.39,-58.81
1329.405,-58.96
1329.42,-58.55
1329.435,-58.55
1329.45,-59.02
1329.465,-58.78
1329.48,-58.36
1329.495,-58.62
1329.51,-58.9
1329.525,-58.78
1329.54,-58.64
1329.555,-59.08
1329.57,-59.1
1329.585,-58.74
1329.6,-58.79
1329.615,-59.26
1329.63,-59.16
1329.645,-58.57
1329.66,-58.9
1329.675,-59.31
1329.69,-58.86
1329.705,-58.65
1329.72,-59.16
1329.735,-58.95
1329.75,-58.36
1329.765,-58.5
1329.78,-58.74
1329.795,-58.6
1329.81,-58.58
1329.825,-58.58
1329.84,-58.35
1329.855,-58.45
1329.87,-58.93
1329.885,-58.8
1329.9,-58.58
1329.915,-58.57
1329.93,-58.86
1329.945,-58.59
1329.96,-58.41
1329.975,-58.7
1329.99,-58.99
1330.005,-58.65
1330.02,-58.48
1330.035,-58.92
1330.05,-58.72
1330.065,-58.37
1330.08,-58.45
1330.095,-59.05
1330.11,-58.89
1330.125,-58.67
1330.14,-58.86
1330.155,-59.14
1330.17,-58.68
1330.185,-58.78
1330.2,-59.0
1330.215,-59.04
1330.23,-58.86
1330.245,-59.12
1330.26,-59.36
1330.275,-59.09
1330.29,-59.19
1330.305,-59.16
1330.32,-59.14
1330.335,-58.74
1330.35,-58.71
1330.365,-58.93
1330.38,-59.02
1330.395,-58.82
1330.41,-58.68
1330.425,-59.08
1330.44,-59.42
1330.455,-58.8
1330.47,-58.94
1330.485,-59.6
1330.5,-59.31
1330.515,-58.83
1330.53,-59.25
1330.545,-59.71
1330.56,-59.0
1330.575,-58.97
1330.59,-59.46
1330.605,-59.37
1330.62,-58.75
1330.635,-58.75
1330.65,-58.78
1330.665,-58.99
1330.68,-58.59
1330.695,-58.68
1330.71,-58.84
1330.725,-58.81
1330.74,-58.8
1330.755,-59.05
1330.77,-59.14
1330.785,-59.25
1330.8,-59.03
1330.815,-58.97
1330.83,-59.04
1330.845,-59.21
1330.86,-59.08
1330.875,-58.88
1330.89,-58.98
1330.905,-59.04
1330.92,-59.04
1330.935,-58.89
1330.95,-59.12
1330.965,-58.93
1330.98,-58.95
1330.995,-58.92
1331.01,-58.94
1331.025,-59.12
1331.04,-59.09
1331.055,-59.24
1331.07,-59.26
1331.085,-59.43
1331.1,-59.36
1331.115,-59.24
1331.13,-59.3
1331.145,-59.47
1331.16,-59.42
1331.175,-59.52
1331.19,-59.41
1331.205,-59.51
1331.22,-59.41
1331.235,-59.28
1331.25,-59.28
1331.265,-58.83
1331.28,-58.82
1331.295,-58.99
1331.31,-58.92
1331.325,-58.81
1331.34,-59.17
1331.355,-59.38
1331.37,-59.28
1331.385,-58.93
1331.4,-59.28
1331.415,-59.27
1331.43,-59.08
1331.445,-59.08
1331.46,-59.32
1331.475,-59.26
1331.49,-58.8
1331.505,-58.98
1331.52,-59.17
1331.535,-59.0
1331.55,-58.75
1331.565,-59.03
1331.58,-58.84
1331.595,-58.61
1331.61,-58.79
1331.625,-58.94
1331.64,-58.83
1331.655,-59.33
1331.67,-59.33
1331.685,-59.1
1331.7,-58.99
1331.715,-59.16
1331.73,-59.19
1331.745,-58.98
1331.76,-59.04
1331.775,-58.97
1331.79,-58.83
1331.805,-58.73
1331.82,-59.1
1331.835,-59.21
1331.85,-58.74
1331.865,-58.76
1331.88,-59.08
1331.895,-59.12
1331.91,-58.8
1331.925,-59.01
1331.94,-59.2
1331.955,-58.75
1331.97,-58.59
1331.985,-58.91
1332.0,-58.89
1332.015,-58.63
1332.03,-58.65
1332.045,-58.91
1332.06,-58.88
1332.075,-58.64
1332.09,-58.78
1332.105,-59.02
1332.12,-58.66
1332.135,-58.5
1332.15,-58.77
1332.165,-58.71
1332.18,-58.33
1332.195,-58.38
1332.21,-58.73
1332.225,-58.41
1332.24,-58.21
1332.255,-58.13
1332.27,-58.86
1332.285,-58.7
1332.3,-58.33
1332.315,-58.63
1332.33,-59.18
1332.345,-58.53
1332.36,-58.38
1332.375,-58.81
1332.39,-58.78
1332.405,-58.74
1332.42,-58.48
1332.435,-58.74
1332.45,-58.95
1332.465,-58.54
1332.48,-58.5
1332.495,-58.83
1332.51,-58.79
1332.525,-58.62
1332.54,-58.53
1332.555,-58.85
1332.57,-58.61
1332.585,-58.65
1332.6,-58.92
1332.615,-58.91
1332.63,-58.53
1332.645,-58.76
1332.66,-59.1
1332.675,-58.84
1332.69,-58.55
1332.705,-58.88
1332.72,-59.22
1332.735,-58.67
1332.75,-58.49
1332.765,-58.69
1332.78,-58.98
1332.795,-58.37
1332.81,-58.55
1332.825,-58.99
1332.84,-58.74
1332.855,-58.47
1332.87,-58.72
1332.885,-58.98
1332.9,-58.5
1332.915,-58.44
1332.93,-58.67
1332.945,-58.75
1332.96,-58.45
1332.975,-58.64
1332.99,-59.07
1333.005,-58.92
1333.02,-58.72
1333.035,-58.9
1333.05,-59.22
1333.065,-58.67
1333.08,-58.54
1333.095,-58.88
1333.11,-58.71
1333.125,-58.46
1333.141,-58.66
1333.155,-59.03
1333.17,-58.81
1333.185,-58.57
1333.2,-58.76
1333.215,-58.82
1333.23,-58.65
1333.245,-58.65
1333.26,-59.24
1333.276,-59.22
1333.29,-58.95
1333.305,-58.85
1333.32,-59.35
1333.335,-58.96
1333.35,-58.84
1333.365,-58.86
1333.38,-58.9
1333.396,-58.75
1333.411,-58.2
1333.426,-58.51
1333.44,-59.02
1333.455,-58.32
1333.47,-58.14
1333.485,-58.61
1333.5,-58.78
1333.516,-58.31
1333.531,-58.36
1333.546,-59.08
1333.561,-58.74
1333.575,-58.35
1333.59,-58.57
1333.605,-58.94
1333.62,-58.34
1333.635,-58.4
1333.651,-58.79
1333.666,-58.56
1333.681,-57.97
1333.696,-58.07
1333.711,-58.63
1333.725,-58.27
1333.74,-57.99
1333.755,-58.17
1333.771,-58.68
1333.786,-58.23
1333.801,-58.16
1333.816,-58.4
1333.831,-58.36
1333.846,-57.95
1333.86,-57.92
1333.875,-58.38
1333.891,-58.19
1333.906,-57.88
1333.921,-58.1
1333.936,-58.47
1333.951,-58.14
1333.966,-57.81
1333.981,-58.23
1333.996,-58.23
1334.01,-57.68
1334.026,-57.68
1334.041,-58.16
1334.056,-57.84
1334.071,-57.54
1334.086,-57.77
1334.101,-58.09
1334.116,-57.73
1334.131,-57.68
1334.146,-57.94
1334.161,-58.0
1334.176,-57.53
1334.191,-57.57
1334.206,-58.07
1334.221,-58.0
1334.236,-57.71
1334.251,-57.83
1334.266,-58.02
1334.281,-57.53
1334.296,-57.35
1334.311,-57.85
1334.326,-57.68
1334.341,-57.31
1334.356,-57.35
1334.371,-57.82
1334.386,-57.42
1334.401,-57.37
1334.416,-57.72
1334.431,-57.95
1334.446,-57.49
1334.461,-57.56
1334.476,-58.11
1334.491,-58.06
1334.506,-57.58
1334.521,-57.75
1334.536,-58.13
1334.551,-57.71
1334.566,-57.44
1334.581,-57.74
1334.596,-58.12
1334.611,-57.63
1334.626,-57.58
1334.641,-57.91
1334.656,-57.84
1334.671,-57.42
1334.686,-57.71
1334.701,-58.32
1334.716,-57.79
1334.731,-57.56
1334.746,-57.75
1334.761,-58.3
1334.776,-57.9
1334.791,-57.76
1334.806,-58.18
1334.821,-58.29
1334.836,-57.95
1334.851,-57.94
1334.866,-58.65
1334.881,-58.33
1334.896,-57.91
1334.911,-58.37
1334.926,-58.77
1334.941,-58.2
1334.956,-57.95
1334.971,-58.64
1334.986,-58.67
1335.001,-58.16
1335.016,-58.34
1335.031,-59.03
1335.046,-58.54
1335.061,-58.21
1335.076,-58.72
1335.091,-59.22
1335.106,-58.52
1335.121,-58.36
1335.136,-58.95
1335.151,-58.98
1335.166,-58.27
1335.181,-58.46
1335.196,-59.06
1335.211,-58.53
1335.226,-58.15
1335.241,-58.57
1335.256,-58.99
1335.271,-58.4
1335.286,-58.42
1335.301,-59.11
1335.316,-58.89
1335.331,-58.61
1335.346,-58.92
1335.361,-59.46
1335.376,-58.76
1335.391,-58.79
1335.406,-59.37
1335.421,-59.0
1335.436,-58.8
1335.451,-59.22
1335.466,-59.07
1335.481,-58.65
1335.496,-58.55
1335.511,-58.89
1335.526,-58.72
1335.541,-58.37
1335.556,-58.73
1335.571,-58.92
1335.586,-58.71
1335.601,-58.45
1335.616,-58.76
1335.631,-58.75
1335.646,-58.54
1335.661,-58.55
1335.676,-59.06
1335.691,-58.89
1335.706,-58.58
1335.721,-58.9
1335.736,-59.14
1335.751,-59.04
1335.766,-58.65
1335.781,-58.88
1335.796,-58.8
1335.811,-58.52
1335.826,-58.63
1335.841,-58.73
1335.856,-58.72
1335.871,-58.39
1335.886,-58.57
1335.901,-58.61
1335.916,-58.49
1335.931,-58.45
1335.946,-58.58
1335.961,-58.66
1335.976,-58.39
1335.991,-58.54
1336.006,-58.6
1336.021,-58.62
1336.036,-58.44
1336.051,-58.67
1336.066,-58.64
1336.081,-58.35
1336.096,-58.28
1336.111,-58.42
1336.126,-58.36
1336.141,-58.06
1336.156,-58.23
1336.171,-58.3
1336.186,-58.21
1336.201,-58.16
1336.216,-58.35
1336.231,-58.48
1336.246,-58.24
1336.261,-58.42
1336.276,-58.52
1336.291,-58.42
1336.306,-58.29
1336.321,-58.48
1336.336,-58.42
1336.351,-58.27
1336.366,-58.15
1336.381,-58.42
1336.396,-58.34
1336.411,-58.08
1336.426,-58.56
1336.441,-58.33
1336.456,-57.93
1336.471,-58.28
1336.486,-58.65
1336.501,-58.25
1336.516,-57.99
1336.531,-58.47
1336.546,-58.71
1336.561,-58.19
1336.576,-58.2
1336.591,-58.75
1336.606,-58.49
1336.621,-58.18
1336.636,-58.58
1336.651,-58.98
1336.666,-58.58
1336.681,-58.18
1336.696,-58.74
1336.711,-58.68
1336.726,-58.09
1336.741,-58.09
1336.756,-58.58
1336.771,-58.42
1336.786,-58.14
1336.801,-58.58
1336.816,-58.73
1336.831,-58.33
1336.846,-58.31
1336.861,-58.93
1336.876,-58.74
1336.891,-58.23
1336.906,-58.74
1336.921,-59.19
1336.936,-58.68
1336.951,-58.34
1336.966,-58.78
1336.981,-59.1
1336.996,-58.42
1337.011,-58.25
1337.026,-58.73
1337.041,-58.55
1337.056,-58.02
1337.071,-58.2
1337.086,-58.81
1337.101,-58.39
1337.116,-58.12
1337.131,-58.65
1337.146,-58.72
1337.161,-58.28
1337.176,-58.35
1337.191,-59.08
1337.206,-58.67
1337.221,-58.45
1337.236,-58.68
1337.251,-59.3
1337.266,-58.53
1337.281,-58.28
1337.296,-58.76
1337.311,-58.89
1337.326,-58.23
1337.341,-58.24
1337.356,-58.79
1337.371,-58.62
1337.386,-58.11
1337.401,-58.53
1337.416,-58.84
1337.431,-58.3
1337.446,-58.42
1337.461,-58.9
1337.476,-58.65
1337.491,-58.04
1337.506,-58.32
1337.521,-58.97
1337.536,-58.6
1337.551,-58.33
1337.566,-58.68
1337.581,-58.93
1337.596,-58.35
1337.611,-58.31
1337.626,-58.57
1337.641,-58.54
1337.656,-58.05
1337.671,-58.18
1337.686,-58.7
1337.701,-58.21
1337.716,-57.94
1337.731,-58.37
1337.746,-58.69
1337.761,-57.98
1337.776,-58.04
1337.791,-58.54
1337.806,-58.17
1337.821,-57.94
1337.836,-58.17
1337.851,-58.53
1337.866,-57.9
1337.881,-57.95
1337.896,-58.36
1337.911,-58.41
1337.926,-57.87
1337.941,-57.87
1337.956,-58.34
1337.971,-58.09
1337.986,-57.72
1338.001,-57.92
1338.016,-58.46
1338.031,-58.02
1338.046,-57.9
1338.061,-58.39
1338.076,-58.85
1338.091,-58.22
1338.106,-58.13
1338.121,-58.57
1338.136,-58.49
1338.151,-58.57
1338.166,-58.95
1338.181,-58.8
1338.196,-58.13
1338.211,-58.34
1338.226,-58.73
1338.241,-58.36
1338.256,-57.81
1338.271,-58.26
1338.286,-58.49
1338.301,-58.05
1338.316,-57.91
1338.331,-58.55
1338.346,-58.37
1338.361,-57.98
1338.376,-58.05
1338.391,-58.49
1338.406,-58.28
1338.421,-58.03
1338.436,-58.45
1338.451,-58.39
1338.466,-57.91
1338.481,-58.11
1338.496,-58.72
1338.511,-58.5
1338.526,-58.05
1338.541,-58.3
1338.556,-58.47
1338.571,-58.09
1338.586,-57.91
1338.601,-58.26
1338.616,-58.29
1338.631,-58.2
1338.646,-58.3
1338.661,-58.76
1338.676,-58.58
1338.691,-58.26
1338.706,-58.76
1338.721,-59.0
1338.736,-58.74
1338.751,-58.5
1338.766,-59.04
1338.781,-59.03
1338.796,-58.51
1338.811,-58.73
1338.826,-59.03
1338.841,-58.61
1338.856,-58.12
1338.871,-58.59
1338.886,-58.64
1338.901,-58.45
1338.916,-58.18
1338.931,-58.5
1338.946,-58.44
1338.961,-58.08
1338.976,-58.27
1338.991,-58.51
1339.006,-58.32
1339.021,-58.1
1339.036,-58.54
1339.051,-58.53
1339.066,-58.18
1339.081,-57.93
1339.096,-58.22
1339.111,-58.32
1339.126,-57.96
1339.141,-57.84
1339.156,-57.54
1339.171,-57.33
1339.186,-57.73
1339.201,-57.72
1339.216,-57.56
1339.231,-57.45
1339.246,-57.76
1339.261,-57.88
1339.276,-57.62
1339.291,-57.79
1339.306,-57.96
1339.321,-57.86
1339.336,-57.59
1339.351,-58.01
1339.366,-57.85
1339.381,-57.72
1339.396,-57.76
1339.411,-57.98
1339.426,-57.78
1339.441,-57.43
1339.456,-57.66
1339.471,-57.79
1339.486,-57.6
1339.501,-57.39
1339.516,-57.74
1339.531,-57.75
1339.546,-57.49
1339.561,-57.52
1339.576,-57.91
1339.591,-57.85
1339.606,-57.61
1339.621,-58.04
1339.636,-58.0
1339.651,-57.72
1339.666,-57.57
1339.681,-57.93
1339.696,-57.93
1339.711,-57.53
1339.726,-57.72
1339.741,-57.94
1339.756,-57.62
1339.771,-57.49
1339.786,-57.97
1339.801,-57.93
1339.816,-57.83
1339.831,-57.76
1339.846,-58.05
1339.861,-58.17
1339.876,-58.24
1339.891,-58.08
1339.906,-58.03
1339.921,-58.23
1339.936,-58.38
1339.951,-58.19
1339.966,-58.32
1339.981,-58.52
1339.996,-58.48
1340.011,-58.44
1340.026,-58.46
1340.041,-58.3
1340.056,-58.25
1340.071,-58.29
1340.086,-58.35
1340.101,-58.27
1340.116,-58.08
1340.131,-58.2
1340.146,-58.47
1340.161,-58.82
1340.176,-58.72
1340.191,-58.31
1340.206,-58.9
1340.221,-59.01
1340.236,-58.66
1340.251,-58.67
1340.266,-58.99
1340.281,-58.89
1340.296,-58.37
1340.311,-58.66
1340.326,-58.85
1340.341,-58.64
1340.356,-58.27
1340.371,-58.81
1340.386,-58.81
1340.401,-58.51
1340.416,-58.52
1340.431,-58.91
1340.446,-58.85
1340.461,-58.57
1340.476,-59.03
1340.491,-59.15
1340.506,-58.94
1340.521,-58.75
1340.536,-59.21
1340.551,-59.33
1340.566,-59.54
1340.581,-59.47
1340.596,-59.36
1340.611,-59.48
1340.626,-59.34
1340.641,-59.29
1340.656,-59.17
1340.671,-59.13
1340.686,-59.03
1340.701,-58.96
1340.716,-58.99
1340.731,-58.98
1340.746,-58.91
1340.761,-58.94
1340.776,-58.97
1340.791,-58.78
1340.806,-59.04
1340.821,-58.81
1340.836,-58.72
1340.851,-58.89
1340.866,-58.96
1340.881,-58.51
1340.896,-58.79
1340.911,-59.04
1340.926,-58.75
1340.941,-58.27
1340.956,-58.73
1340.971,-58.8
1340.986,-58.73
1341.001,-58.59
1341.016,-58.57
1341.031,-58.65
1341.046,-58.79
1341.061,-58.79
1341.076,-58.66
1341.091,-58.64
1341.106,-58.79
1341.121,-58.66
1341.136,-58.79
1341.151,-58.87
1341.167,-58.91
1341.181,-58.7
1341.196,-58.79
1341.211,-58.6
1341.226,-58.72
1341.241,-58.78
1341.256,-58.62
1341.271,-58.55
1341.286,-58.59
1341.302,-58.59
1341.316,-58.54
1341.331,-58.59
1341.346,-58.59
1341.361,-58.56
1341.376,-58.59
1341.391,-58.59
1341.406,-58.95
1341.422,-58.83
1341.437,-58.36
1341.452,-58.48
1341.466,-59.1
1341.481,-58.62
1341.496,-58.27
1341.511,-58.66
1341.526,-58.93
1341.542,-58.34
1341.557,-58.21
1341.572,-58.2
1341.587,-57.96
1341.601,-57.92
1341.616,-58.03
1341.631,-58.15
1341.646,-57.91
1341.661,-58.02
1341.677,-58.14
1341.692,-58.09
1341.707,-58.09
1341.722,-58.24
1341.737,-58.34
1341.751,-58.06
1341.766,-58.21
1341.781,-58.47
1341.797,-58.54
1341.812,-58.24
1341.827,-58.29
1341.842,-58.64
1341.857,-58.47
1341.872,-58.27
1341.887,-58.49
1341.901,-58.67
1341.917,-58.45
1341.932,-58.25
1341.947,-58.48
1341.962,-58.49
1341.977,-58.58
1341.992,-58.12
1342.007,-58.13
1342.022,-58.45
1342.036,-58.48
1342.052,-57.99
1342.067,-57.91
1342.082,-58.02
1342.097,-58.23
1342.112,-58.13
1342.127,-58.05
1342.142,-58.14
1342.157,-58.21
1342.172,-57.94
1342.187,-57.96
1342.202,-58.18
1342.217,-58.39
1342.232,-58.02
1342.247,-58.02
1342.262,-58.32
1342.277,-58.27
1342.292,-57.97
1342.307,-58.25
1342.322,-58.54
1342.337,-58.56
1342.352,-58.36
1342.367,-58.63
1342.382,-58.62
1342.397,-58.43
1342.412,-58.2
1342.427,-58.11
1342.442,-58.44
1342.457,-58.46
1342.472,-57.95
1342.487,-58.16
1342.502,-58.52
1342.517,-58.22
1342.532,-57.98
1342.547,-58.31
1342.562,-58.5
1342.577,-58.3
1342.592,-58.21
1342.607,-58.7
1342.622,-58.62
1342.637,-58.09
1342.652,-58.31
1342.667,-58.75
1342.682,-58.68
1342.697,-58.77
1342.712,-58.69
1342.727,-58.59
1342.742,-58.47
1342.757,-58.73
1342.772,-58.41
1342.787,-58.26
1342.802,-58.07
1342.817,-58.45
1342.832,-58.43
1342.847,-58.07
1342.862,-58.23
1342.877,-58.44
1342.892,-58.21
1342.907,-57.82
1342.922,-57.99
1342.937,-58.36
1342.952,-58.13
1342.967,-58.09
1342.982,-58.16
1342.997,-58.17
1343.012,-57.96
1343.027,-58.03
1343.042,-58.15
1343.057,-58.09
1343.072,-58.19
1343.087,-58.68
1343.102,-58.62
1343.117,-58.49
1343.132,-58.63
1343.147,-58.66
1343.162,-58.39
1343.177,-58.52
1343.192,-58.7
1343.207,-58.66
1343.222,-58.36
1343.237,-58.55
1343.252,-58.57
1343.267,-58.54
1343.282,-58.64
1343.297,-58.85
1343.312,-58.69
1343.327,-58.56
1343.342,-58.56
1343.357,-58.54
1343.372,-58.33
1343.387,-58.14
1343.402,-58.41
1343.417,-58.39
1343.432,-58.33
1343.447,-58.32
1343.462,-58.39
1343.477,-58.41
1343.492,-58.35
1343.507,-58.39
1343.522,-58.4
1343.537,-59.0
1343.552,-58.65
1343.567,-58.29
1343.582,-58.35
1343.597,-59.04
1343.612,-58.47
1343.627,-58.33
1343.642,-58.55
1343.657,-58.86
1343.672,-58.43
1343.687,-58.44
1343.702,-58.38
1343.717,-58.53
1343.732,-58.49
1343.747,-58.32
1343.762,-58.25
1343.777,-58.49
1343.792,-58.49
1343.807,-58.63
1343.822,-58.49
1343.837,-58.38
1343.852,-58.59
1343.867,-58.44
1343.882,-58.48
1343.897,-58.49
1343.912,-58.54
1343.927,-58.83
1343.942,-58.44
1343.957,-58.89
1343.972,-59.01
1343.987,-58.62
1344.002,-58.76
1344.017,-59.54
1344.032,-59.24
1344.047,-58.87
1344.062,-59.1
1344.077,-59.52
1344.092,-58.93
1344.107,-58.78
1344.122,-58.72
1344.137,-58.93
1344.152,-58.79
1344.167,-58.85
1344.182,-59.01
1344.197,-58.79
1344.212,-58.92
1344.227,-58.97
1344.242,-59.05
1344.257,-59.19
1344.272,-59.07
1344.287,-58.87
1344.302,-58.97
1344.317,-59.1
1344.332,-58.91
1344.347,-58.8
1344.362,-58.77
1344.377,-59.3
1344.392,-59.62
1344.407,-59.1
1344.422,-59.01
1344.437,-59.58
1344.452,-59.6
1344.467,-59.2
1344.482,-59.43
1344.497,-59.83
1344.512,-59.54
1344.527,-59.33
1344.542,-58.77
1344.557,-59.0
1344.572,-59.21
1344.587,-59.33
1344.602,-58.82
1344.617,-58.93
1344.632,-58.93
1344.647,-58.9
1344.662,-58.87
1344.677,-58.88
1344.692,-58.78
1344.707,-58.77
1344.722,-58.73
1344.737,-58.74
1344.752,-59.07
1344.767,-59.15
1344.782,-59.06
1344.797,-59.4
1344.812,-59.96
1344.827,-59.2
1344.842,-59.31
1344.857,-59.69
1344.872,-59.8
1344.887,-59.01
1344.902,-59.09
1344.917,-60.1
1344.932,-59.33
1344.947,-59.21
1344.962,-59.28
1344.977,-59.27
1344.992,-59.13
1345.007,-59.2
1345.022,-59.18
1345.037,-59.21
1345.052,-59.09
1345.067,-59.27
1345.082,-59.32
1345.097,-59.21
1345.112,-59.26
1345.127,-59.4
1345.142,-59.08
1345.157,-59.04
1345.172,-59.16
1345.187,-59.1
1345.202,-59.25
1345.217,-59.21
1345.232,-59.68
1345.247,-59.03
1345.262,-58.84
1345.277,-59.43
1345.292,-59.48
1345.307,-58.77
1345.322,-58.86
1345.337,-59.52
1345.352,-59.07
1345.367,-58.85
1345.382,-59.05
1345.397,-59.09
1345.412,-58.81
1345.427,-59.07
1345.442,-59.29
1345.457,-58.8
1345.472,-58.83
1345.487,-59.05
1345.502,-59.03
1345.517,-58.52
1345.532,-58.81
1345.547,-59.44
1345.562,-59.13
1345.577,-58.76
1345.592,-58.84
1345.607,-58.82
1345.622,-58.38
1345.637,-58.66
1345.652,-59.27
1345.667,-58.73
1345.682,-58.5
1345.697,-59.21
1345.712,-59.1
1345.727,-58.69
1345.742,-58.72
1345.757,-59.19
1345.772,-58.59
1345.787,-58.36
1345.802,-58.71
1345.817,-58.42
1345.832,-58.29
1345.847,-58.22
1345.862,-58.47
1345.877,-58.2
1345.892,-58.45
1345.907,-59.31
1345.922,-58.67
1345.937,-58.34
1345.952,-58.66
1345.967,-59.12
1345.982,-58.66
1345.997,-58.5
1346.012,-58.87
1346.027,-58.83
1346.042,-58.3
1346.057,-58.26
1346.072,-58.86
1346.087,-58.49
1346.102,-58.2
1346.117,-58.48
1346.132,-58.78
1346.147,-58.59
1346.162,-58.59
1346.177,-58.94
1346.192,-58.5
1346.207,-58.22
1346.222,-58.69
1346.237,-58.37
1346.252,-58.27
1346.267,-58.64
1346.282,-58.76
1346.297,-58.38
1346.312,-58.43
1346.327,-58.84
1346.342,-58.83
1346.357,-58.5
1346.372,-58.74
1346.387,-58.91
1346.402,-58.42
1346.417,-58.37
1346.432,-58.63
1346.447,-58.52
1346.462,-58.43
1346.477,-58.49
1346.492,-58.73
1346.507,-58.18
1346.522,-58.24
1346.537,-58.83
1346.552,-58.5
1346.567,-58.13
1346.582,-58.71
1346.597,-59.16
1346.612,-58.9
1346.627,-59.12
1346.642,-59.66
1346.657,-59.13
1346.672,-59.07
1346.687,-59.3
1346.702,-59.18
1346.717,-59.0
1346.732,-58.8
1346.747,-59.33
1346.762,-58.99
1346.777,-58.88
1346.792,-59.22
1346.807,-59.46
1346.822,-59.12
1346.837,-58.94
1346.852,-59.24
1346.867,-59.56
1346.882,-59.31
1346.897,-59.14
1346.912,-58.84
1346.927,-58.37
1346.942,-58.67
1346.957,-59.15
1346.972,-58.61
1346.987,-58.4
1347.002,-58.73
1347.017,-58.91
1347.032,-58.41
1347.047,-58.36
1347.062,-59.06
1347.077,-58.67
1347.092,-58.3
1347.107,-58.62
1347.122,-59.1
1347.137,-58.74
1347.152,-58.51
1347.167,-58.82
1347.182,-59.0
1347.197,-58.9
1347.212,-58.99
1347.227,-59.08
1347.242,-58.87
1347.257,-58.84
1347.272,-58.89
1347.287,-58.9
1347.302,-58.55
1347.317,-58.66
1347.332,-58.78
1347.347,-58.2
1347.362,-58.46
1347.377,-58.89
1347.392,-58.61
1347.407,-58.34
1347.422,-58.87
1347.437,-59.06
1347.452,-58.57
1347.467,-58.49
1347.482,-59.09
1347.497,-59.0
1347.512,-58.96
1347.527,-59.06
1347.542,-59.17
1347.557,-58.91
1347.572,-58.97
1347.587,-58.88
1347.602,-58.69
1347.617,-58.54
1347.632,-58.67
1347.647,-58.31
1347.662,-58.02
1347.677,-58.33
1347.692,-58.71
1347.707,-58.14
1347.722,-57.9
1347.737,-58.31
1347.752,-58.41
1347.767,-57.99
1347.782,-58.14
1347.797,-58.61
1347.812,-58.27
1347.827,-57.94
1347.842,-58.21
1347.857,-58.84
1347.872,-58.02
1347.887,-58.18
1347.902,-58.52
1347.917,-58.02
1347.932,-58.38
1347.947,-58.84
1347.962,-58.3
1347.977,-58.11
1347.992,-58.61
1348.007,-58.78
1348.022,-58.31
1348.037,-58.36
1348.052,-58.96
1348.067,-58.71
1348.082,-58.42
1348.097,-58.94
1348.112,-58.79
1348.127,-58.21
1348.142,-58.29
1348.157,-58.56
1348.172,-58.28
1348.187,-57.83
1348.202,-58.19
1348.217,-58.45
1348.232,-58.05
1348.247,-58.02
1348.262,-58.64
1348.277,-58.52
1348.292,-57.97
1348.307,-58.35
1348.322,-58.33
1348.337,-58.2
1348.352,-58.66
1348.367,-58.53
1348.382,-58.09
1348.397,-58.22
1348.412,-58.71
1348.427,-58.22
1348.442,-57.85
1348.457,-58.14
1348.472,-58.3
1348.487,-57.82
1348.502,-57.64
1348.517,-58.05
1348.532,-58.02
1348.547,-57.47
1348.562,-57.83
1348.577,-57.74
1348.592,-57.72
1348.607,-57.86
1348.622,-57.83
1348.637,-57.86
1348.652,-57.94
1348.667,-58.46
1348.682,-58.15
1348.697,-57.79
1348.712,-58.33
1348.727,-58.51
1348.742,-58.4
1348.757,-58.06
1348.772,-58.47
1348.787,-58.33
1348.802,-57.8
1348.817,-57.98
1348.832,-58.23
1348.847,-58.11
1348.862,-58.01
1348.877,-58.15
1348.892,-57.78
1348.907,-57.74
1348.922,-58.02
1348.937,-57.93
1348.952,-57.53
1348.967,-57.78
1348.982,-58.02
1348.997,-57.75
1349.012,-57.67
1349.027,-58.11
1349.042,-58.02
1349.057,-57.6
1349.072,-57.61
1349.087,-57.92
1349.102,-57.47
1349.117,-57.57
1349.132,-58.17
1349.147,-57.99
1349.162,-57.91
1349.177,-58.3
1349.193,-58.38
1349.207,-58.12
1349.222,-58.33
1349.237,-58.49
1349.252,-58.35
1349.267,-58.1
1349.282,-58.51
1349.297,-58.48
1349.313,-58.2
1349.328,-58.68
1349.343,-59.0
1349.357,-58.33
1349.372,-58.32
1349.387,-58.97
1349.402,-58.79
1349.417,-58.25
1349.432,-58.55
1349.448,-59.25
1349.463,-58.84
1349.478,-59.22
1349.492,-59.43
1349.507,-59.23
1349.522,-58.96
1349.537,-59.51
1349.552,-59.8
1349.568,-59.12
1349.583,-59.92
1349.598,-60.0
1349.613,-59.23
1349.628,-59.46
1349.642,-60.09
1349.657,-59.63
1349.672,-58.96
1349.688,-59.43
1349.703,-59.34
1349.718,-58.81
1349.733,-59.28
1349.748,-59.21
1349.763,-58.98
1349.777,-58.73
1349.792,-59.2
1349.807,-59.32
1349.823,-58.82
1349.838,-58.89
1349.853,-59.51
1349.868,-58.88
1349.883,-58.76
1349.898,-59.36
1349.913,-59.5
1349.927,-59.23
1349.943,-59.81
1349.958,-59.98
1349.973,-59.38
1349.988,-59.5
1350.003,-60.03
1350.018,-59.63
1350.033,-58.96
1350.048,-59.48
1350.063,-59.8
1350.078,-59.59
1350.093,-59.43
1350.108,-60.39
1350.123,-60.21
1350.138,-59.24
1350.153,-59.58
1350.168,-59.22
1350.183,-58.77
1350.198,-59.43
1350.213,-59.43
1350.228,-58.8
1350.243,-58.93
1350.258,-59.41
1350.273,-59.1
1350.288,-58.51
1350.303,-58.9
1350.318,-59.04
1350.333,-58.65
1350.348,-58.25
1350.363,-58.88
1350.378,-58.88
1350.393,-58.65
1350.408,-58.8
1350.423,-58.82
1350.438,-58.86
1350.453,-58.84
1350.468,-58.95
1350.483,-58.39
1350.498,-58.32
1350.513,-58.99
1350.528,-58.74
1350.543,-58.18
1350.558,-58.51
1350.573,-58.91
1350.588,-58.22
1350.603,-58.11
1350.618,-58.75
1350.633,-58.55
1350.648,-58.4
1350.663,-58.63
1350.678,-58.81
1350.693,-58.61
1350.708,-59.27
1350.723,-59.42
1350.738,-58.83
1350.753,-58.9
1350.768,-59.52
1350.783,-59.53
1350.798,-58.93
1350.813,-59.2
1350.828,-59.98
1350.843,-59.48
1350.858,-59.01
1350.873,-59.45
1350.888,-59.74
1350.903,-59.08
1350.918,-58.98
1350.933,-59.42
1350.948,-58.84
1350.963,-58.96
1350.978,-59.25
1350.993,-58.91
1351.008,-58.66
1351.023,-59.28
1351.038,-59.38
1351.053,-58.76
1351.068,-59.08
1351.083,-59.22
1351.098,-59.2
1351.113,-58.49
1351.128,-58.85
1351.143,-59.06
1351.158,-58.57
1351.173,-59.05
1351.188,-59.51
1351.203,-58.8
1351.218,-58.6
1351.233,-59.12
1351.248,-58.71
1351.263,-58.5
1351.278,-58.92
1351.293,-58.94
1351.308,-58.55
1351.323,-58.81
1351.338,-59.17
1351.353,-59.13
1351.368,-58.56
1351.383,-59.04
1351.398,-58.82
1351.413,-58.29
1351.428,-58.6
1351.443,-59.04
1351.458,-58.34
1351.473,-58.14
1351.488,-58.7
1351.503,-58.86
1351.518,-58.24
1351.533,-58.62
1351.548,-58.65
1351.563,-58.13
1351.578,-57.97
1351.593,-58.63
1351.608,-58.56
1351.623,-57.98
1351.638,-58.43
1351.653,-58.4
1351.668,-57.98
1351.683,-58.02
1351.698,-58.47
1351.713,-57.72
1351.728,-57.91
1351.743,-58.18
1351.758,-57.95
1351.773,-57.57
1351.788,-57.71
1351.803,-57.96
1351.818,-57.72
1351.833,-57.4
1351.848,-57.8
1351.863,-57.94
1351.878,-57.57
1351.893,-57.3
1351.908,-57.52
1351.923,-57.58
1351.938,-57.67
1351.953,-57.76
1351.968,-57.38
1351.983,-57.45
1351.998,-57.93
1352.013,-57.89
1352.028,-57.32
1352.043,-57.49
1352.058,-57.91
1352.073,-57.47
1352.088,-57.67
1352.103,-57.6
1352.118,-57.64
1352.133,-57.6
1352.148,-57.72
1352.163,-57.86
1352.178,-57.56
1352.193,-57.61
1352.208,-57.63
1352.223,-57.66
1352.238,-57.55
1352.253,-58.09
1352.268,-58.02
1352.283,-57.89
1352.298,-58.04
1352.313,-58.09
1352.328,-58.0
1352.343,-57.99
1352.358,-57.97
1352.373,-58.03
1352.388,-57.89
1352.403,-58.09
1352.418,-58.15
1352.433,-57.98
1352.448,-57.93
1352.463,-57.85
1352.478,-58.13
1352.493,-58.28
1352.508,-57.88
1352.523,-57.93
1352.538,-57.8
1352.553,-58.19
1352.568,-58.36
1352.583,-58.26
1352.598,-58.19
1352.613,-58.28
1352.628,-58.25
1352.643,-58.03
1352.658,-58.19
1352.673,-58.03
1352.688,-58.59
1352.703,-58.13
1352.718,-58.26
1352.733,-58.23
1352.748,-58.3
1352.763,-58.49
1352.778,-58.55
1352.793,-58.43
1352.808,-58.76
1352.823,-58.81
1352.838,-58.79
1352.853,-58.74
1352.868,-58.81
1352.883,-58.85
1352.898,-58.89
1352.913,-59.27
1352.928,-59.06
1352.943,-58.64
1352.958,-58.82
1352.973,-58.91
1352.988,-58.75
1353.003,-58.46
1353.018,-58.74
1353.033,-58.87
1353.048,-58.61
1353.063,-58.74
1353.078,-59.07
1353.093,-58.4
1353.108,-58.44
1353.123,-59.23
1353.138,-58.74
1353.153,-58.68
1353.168,-58.88
1353.183,-58.99
1353.198,-58.73
1353.213,-59.07
1353.228,-59.35
1353.243,-59.18
1353.258,-58.9
1353.273,-59.17
1353.288,-58.82
1353.303,-58.44
1353.318,-59.07
1353.333,-59.08
1353.348,-58.45
1353.363,-58.9
1353.378,-59.0
1353.393,-58.84
1353.408,-58.6
1353.423,-58.97
1353.438,-58.95
1353.453,-58.54
1353.468,-58.99
1353.483,-59.12
1353.498,-58.44
1353.513,-58.64
1353.528,-59.33
1353.543,-58.97
1353.558,-58.4
1353.573,-58.71
1353.588,-58.67
1353.603,-58.22
1353.618,-58.45
1353.633,-58.57
1353.648,-58.59
1353.663,-58.21
1353.678,-59.0
1353.693,-58.34
1353.708,-58.09
1353.723,-58.73
1353.738,-58.89
1353.753,-58.41
1353.768,-58.65
1353.783,-58.83
1353.798,-58.67
1353.813,-58.39
1353.828,-58.56
1353.843,-58.54
1353.858,-58.38
1353.873,-58.43
1353.888,-58.42
1353.903,-58.36
1353.918,-58.26
1353.933,-59.01
1353.948,-58.78
1353.963,-58.65
1353.978,-58.88
1353.993,-58.9
1354.008,-58.96
1354.023,-59.13
1354.038,-59.08
1354.053,-59.13
1354.068,-59.02
1354.083,-59.1
1354.098,-59.2
1354.113,-59.26
1354.128,-59.05
1354.143,-58.91
1354.158,-58.93
1354.173,-59.03
1354.188,-58.94
1354.203,-59.0
1354.218,-58.97
1354.233,-58.99
1354.248,-58.95
1354.263,-58.88
1354.278,-58.9
1354.293,-58.98
1354.308,-59.09
1354.323,-58.91
1354.338,-58.51
1354.353,-58.76
1354.368,-58.86
1354.383,-58.83
1354.398,-58.79
1354.413,-58.83
1354.428,-58.78
1354.443,-58.66
1354.458,-58.75
1354.473,-58.8
1354.488,-58.7
1354.503,-58.6
1354.518,-59.12
1354.533,-58.48
1354.548,-58.41
1354.563,-58.94
1354.578,-58.82
1354.593,-58.73
1354.608,-59.01
1354.623,-58.98
1354.638,-58.95
1354.653,-58.91
1354.668,-59.37
1354.683,-59.02
1354.698,-59.01
1354.713,-59.82
1354.728,-59.4
1354.743,-58.87
1354.758,-59.04
1354.773,-58.98
1354.788,-58.57
1354.803,-58.84
1354.818,-59.09
1354.833,-58.92
1354.848,-58.99
1354.863,-59.19
1354.878,-58.86
1354.893,-58.48
1354.908,-59.09
1354.923,-59.54
1354.938,-58.6
1354.953,-58.79
1354.968,-58.99
1354.983,-58.87
1354.998,-58.79
1355.013,-59.04
1355.028,-58.94
1355.043,-58.77
1355.058,-58.81
1355.073,-58.9
1355.088,-58.21
1355.103,-58.38
1355.118,-58.87
1355.133,-58.4
1355.148,-58.33
1355.163,-58.55
1355.178,-58.46
1355.193,-58.41
1355.208,-58.59
1355.223,-58.67
1355.238,-58.3
1355.253,-58.54
1355.268,-59.18
1355.283,-58.6
1355.298,-58.4
1355.313,-58.98
1355.328,-58.77
1355.343,-58.72
1355.358,-59.03
1355.373,-58.95
1355.388,-58.56
1355.403,-58.71
1355.418,-58.83
1355.433,-58.71
1355.448,-58.73
1355.463,-59.3
1355.478,-59.17
1355.493,-58.91
1355.508,-59.32
1355.523,-59.32
1355.538,-59.32
1355.553,-59.27
1355.568,-59.28
1355.583,-59.41
1355.598,-59.39
1355.613,-59.3
1355.628,-59.1
1355.643,-58.75
1355.658,-59.12
1355.673,-59.15
1355.688,-58.61
1355.703,-58.63
1355.718,-58.51
1355.733,-58.54
1355.748,-58.51
1355.763,-58.54
1355.778,-58.64
1355.793,-58.64
1355.808,-58.7
1355.823,-58.75
1355.838,-58.34
1355.853,-58.41
1355.868,-58.81
1355.883,-58.76
1355.898,-58.81
1355.913,-58.84
1355.928,-58.57
1355.943,-58.4
1355.958,-58.43
1355.973,-58.56
1355.988,-58.37
1356.003,-58.5
1356.018,-58.96
1356.033,-58.37
1356.048,-58.24
1356.063,-58.78
1356.078,-58.66
1356.093,-58.76
1356.108,-58.89
1356.123,-58.91
1356.138,-58.73
1356.153,-58.86
1356.168,-59.12
1356.183,-58.55
1356.198,-58.42
1356.213,-58.91
1356.228,-58.7
1356.243,-58.46
1356.258,-58.39
1356.273,-58.22
1356.288,-58.31
1356.303,-58.28
1356.318,-57.98
1356.333,-58.24
1356.348,-58.26
1356.363,-58.04
1356.378,-57.87
1356.393,-57.81
1356.408,-57.87
1356.423,-58.18
1356.438,-57.85
1356.453,-57.93
1356.468,-58.02
1356.483,-58.03
1356.498,-57.85
1356.513,-57.92
1356.528,-57.86
1356.543,-57.66
1356.558,-58.15
1356.573,-58.49
1356.588,-57.8
1356.603,-57.74
1356.618,-58.28
1356.633,-58.13
1356.648,-58.23
1356.663,-58.33
1356.678,-58.44
1356.693,-58.34
1356.708,-58.41
1356.723,-58.58
1356.738,-58.58
1356.753,-58.55
1356.768,-59.24
1356.783,-58.61
1356.798,-58.54
1356.813,-59.1
1356.828,-58.88
1356.843,-58.64
1356.858,-58.6
1356.873,-58.57
1356.888,-58.45
1356.903,-58.37
1356.918,-58.47
1356.933,-58.04
1356.948,-58.1
1356.963,-58.71
1356.978,-58.55
1356.993,-58.15
1357.008,-58.31
1357.023,-58.31
1357.038,-58.24
1357.053,-58.25
1357.068,-58.3
1357.083,-58.28
1357.098,-58.25
1357.113,-58.22
1357.128,-57.98
1357.143,-57.78
1357.158,-58.1
1357.173,-58.17
1357.188,-58.05
1357.203,-58.25
1357.219,-58.38
1357.233,-58.22
1357.248,-58.22
1357.263,-58.53
1357.278,-58.58
1357.293,-58.3
1357.308,-58.86
1357.323,-59.13
1357.339,-58.5
1357.354,-58.28
1357.369,-59.1
1357.383,-58.7
1357.398,-58.7
1357.413,-59.0
1357.428,-58.88
1357.443,-58.62
1357.458,-58.78
1357.474,-58.92
1357.489,-58.24
1357.504,-58.52
1357.518,-58.99
1357.533,-58.48
1357.548,-58.35
1357.563,-58.5
1357.578,-58.2
1357.594,-58.12
1357.609,-58.33
1357.624,-58.5
1357.639,-58.32
1357.654,-58.68
1357.668,-58.95
1357.683,-58.19
1357.698,-58.23
1357.714,-58.94
1357.729,-58.65
1357.744,-58.02
1357.759,-58.37
1357.774,-58.3
1357.789,-58.13
1357.803,-58.59
1357.818,-58.43
1357.833,-57.95
1357.849,-58.23
1357.864,-58.86
1357.879,-58.51
1357.894,-58.23
1357.909,-58.83
1357.924,-58.97
1357.939,-58.87
1357.953,-59.02
1357.969,-58.95
1357.984,-58.37
1357.999,-58.59
1358.014,-59.07
1358.029,-58.62
1358.044,-58.29
1358.059,-58.72
1358.074,-58.93
1358.089,-58.43
1358.104,-58.31
1358.119,-58.5
1358.134,-58.25
1358.149,-58.59
1358.164,-58.97
1358.179,-58.35
1358.194,-58.45
1358.209,-59.1
1358.224,-58.92
1358.239,-58.48
1358.254,-58.56
1358.269,-59.12
1358.284,-58.35
1358.299,-58.97
1358.314,-58.67
1358.329,-58.22
1358.344,-58.34
1358.359,-58.93
1358.374,-58.46
1358.389,-58.26
1358.404,-58.62
1358.419,-58.84
1358.434,-58.48
1358.449,-59.05
1358.464,-59.28
1358.479,-58.48
1358.494,-59.15
1358.509,-59.5
1358.524,-58.72
1358.539,-58.7
1358.554,-59.51
1358.569,-59.45
1358.584,-58.79
1358.599,-59.29
1358.614,-59.32
1358.629,-58.6
1358.644,-58.77
1358.659,-58.92
1358.674,-58.37
1358.689,-58.52
1358.704,-58.99
1358.719,-58.53
1358.734,-58.29
1358.749,-58.96
1358.764,-58.75
1358.779,-58.32
1358.794,-58.95
1358.809,-58.73
1358.824,-58.26
1358.839,-58.51
1358.854,-59.01
1358.869,-58.56
1358.884,-58.29
1358.899,-58.58
1358.914,-58.14
1358.929,-57.77
1358.944,-58.35
1358.959,-58.46
1358.974,-58.04
1358.989,-58.21
1359.004,-58.67
1359.019,-58.33
1359.034,-57.95
1359.049,-58.48
1359.064,-58.24
1359.079,-57.89
1359.094,-58.31
1359.109,-58.47
1359.124,-58.25
1359.139,-58.72
1359.154,-58.88
1359.169,-58.13
1359.184,-58.14
1359.199,-58.58
1359.214,-58.46
1359.229,-58.04
1359.244,-58.53
1359.259,-58.67
1359.274,-58.06
1359.289,-58.57
1359.304,-58.32
1359.319,-57.94
1359.334,-58.12
1359.349,-58.57
1359.364,-58.2
1359.379,-58.22
1359.394,-58.76
1359.409,-58.55
1359.424,-58.24
1359.439,-58.85
1359.454,-58.49
1359.469,-58.09
1359.484,-58.5
1359.499,-58.6
1359.514,-58.05
1359.529,-58.07
1359.544,-58.45
1359.559,-57.99
1359.574,-57.73
1359.589,-58.36
1359.604,-57.98
1359.619,-57.89
1359.634,-58.37
1359.649,-58.65
1359.664,-58.09
1359.679,-58.16
1359.694,-58.28
1359.709,-57.93
1359.724,-57.99
1359.739,-58.44
1359.754,-57.86
1359.769,-57.85
1359.784,-58.29
1359.799,-57.94
1359.814,-57.55
1359.829,-57.69
1359.844,-58.13
1359.859,-57.54
1359.874,-57.8
1359.889,-58.02
1359.904,-57.73
1359.919,-57.92
1359.934,-58.59
1359.949,-57.98
1359.964,-57.73
1359.979,-58.14
1359.994,-58.44
1360.009,-58.05
1360.024,-58.32
1360.039,-58.52
1360.054,-58.02
1360.069,-58.25
1360.084,-58.7
1360.099,-58.0
1360.114,-57.85
1360.129,-58.33
1360.144,-58.36
1360.159,-57.8
1360.174,-58.38
1360.189,-58.62
1360.204,-58.26
1360.219,-58.32
1360.234,-58.66
1360.249,-58.11
1360.264,-58.15
1360.279,-58.64
1360.294,-58.33
1360.309,-57.97
1360.324,-58.46
1360.339,-58.47
1360.354,-58.03
1360.369,-58.49
1360.384,-58.39
1360.399,-57.95
1360.414,-58.05
1360.429,-58.62
1360.444,-57.92
1360.459,-57.64
1360.474,-58.04
1360.489,-57.88
1360.504,-57.64
1360.519,-58.02
1360.534,-58.07
1360.549,-57.77
1360.564,-58.06
1360.579,-58.5
1360.594,-57.97
1360.609,-57.87
1360.624,-58.19
1360.639,-57.76
1360.654,-57.62
1360.669,-58.05
1360.684,-57.94
1360.699,-57.77
1360.714,-58.18
1360.729,-58.27
1360.744,-57.76
1360.759,-58.28
1360.774,-58.27
1360.789,-57.95
1360.804,-58.02
1360.819,-58.42
1360.834,-58.37
1360.849,-57.96
1360.864,-58.62
1360.879,-58.3
1360.894,-58.29
1360.909,-58.76
1360.924,-58.66
1360.939,-58.27
1360.954,-58.64
1360.969,-59.07
1360.984,-58.62
1360.999,-58.21
1361.014,-58.74
1361.029,-58.02
1361.044,-58.04
1361.059,-58.91
1361.074,-58.95
1361.089,-58.12
1361.104,-58.5
1361.119,-59.11
1361.134,-58.84
1361.149,-58.38
1361.164,-58.79
1361.179,-58.29
1361.194,-58.56
1361.209,-59.09
1361.224,-58.71
1361.239,-58.21
1361.254,-58.5
1361.269,-58.78
1361.284,-58.15
1361.299,-58.57
1361.314,-58.74
1361.329,-58.25
1361.344,-58.57
1361.359,-59.19
1361.374,-58.44
1361.389,-58.32
1361.404,-59.02
1361.419,-59.13
1361.434,-58.83
1361.449,-59.1
1361.464,-59.31
1361.479,-58.95
1361.494,-59.54
1361.509,-59.84
1361.524,-59.11
1361.539,-59.18
1361.554,-59.95
1361.569,-59.39
1361.584,-59.18
1361.599,-59.48
1361.614,-59.38
1361.629,-59.06
1361.644,-59.78
1361.659,-59.58
1361.674,-58.98
1361.689,-59.03
1361.704,-59.27
1361.719,-58.92
1361.734,-59.05
1361.749,-59.5
1361.764,-58.83
1361.779,-58.82
1361.794,-59.51
1361.809,-59.21
1361.824,-58.75
1361.839,-59.42
1361.854,-59.57
1361.869,-58.9
1361.884,-58.84
1361.899,-59.06
1361.914,-58.46
1361.929,-58.65
1361.944,-59.02
1361.959,-58.98
1361.974,-58.36
1361.989,-58.74
1362.004,-59.03
1362.019,-58.48
1362.034,-58.97
1362.049,-59.57
1362.064,-58.92
1362.079,-58.66
1362.094,-59.27
1362.109,-59.05
1362.124,-58.56
1362.139,-58.92
1362.154,-59.08
1362.169,-58.63
1362.184,-58.92
1362.199,-58.96
1362.214,-58.5
1362.229,-58.3
1362.244,-58.8
1362.259,-58.57
1362.274,-58.22
1362.289,-58.78
1362.304,-58.51
1362.319,-58.33
1362.334,-58.68
1362.349,-58.89
1362.364,-58.29
1362.379,-58.89
1362.394,-59.21
1362.409,-58.48
1362.424,-58.43
1362.439,-58.7
1362.454,-58.41
1362.469,-58.3
1362.484,-58.58
1362.499,-58.55
1362.514,-58.22
1362.529,-58.66
1362.544,-58.62
1362.559,-57.99
1362.574,-58.38
1362.589,-58.58
1362.604,-58.2
1362.619,-58.15
1362.634,-58.61
1362.649,-58.48
1362.664,-58.64
1362.679,-59.18
1362.694,-58.94
1362.709,-58.81
1362.724,-59.4
1362.739,-59.22
1362.754,-58.76
1362.769,-58.93
1362.784,-59.72
1362.799,-59.0
1362.814,-59.18
1362.829,-59.7
1362.844,-58.98
1362.859,-58.79
1362.874,-59.43
1362.889,-59.44
1362.904,-58.94
1362.919,-59.14
1362.934,-59.02
1362.949,-58.84
1362.964,-58.98
1362.979,-59.48
1362.994,-58.91
1363.009,-58.86
1363.024,-59.39
1363.039,-59.23
1363.054,-58.77
1363.069,-58.91
1363.084,-58.66
1363.099,-58.47
1363.114,-58.81
1363.129,-59.17
1363.144,-58.62
1363.159,-58.5
1363.174,-59.2
1363.189,-59.1
1363.204,-59.27
1363.219,-59.27
1363.234,-59.22
1363.249,-59.08
1363.264,-59.7
1363.279,-59.83
1363.294,-59.28
1363.309,-59.26
1363.324,-59.82
1363.339,-59.74
1363.354,-59.77
1363.369,-59.75
1363.384,-59.1
1363.399,-59.09
1363.414,-59.76
1363.429,-59.6
1363.444,-58.97
1363.459,-59.39
1363.474,-59.2
1363.489,-59.29
1363.504,-59.51
1363.519,-59.27
1363.534,-58.82
1363.549,-59.16
1363.564,-59.64
1363.579,-59.38
1363.594,-59.04
1363.609,-58.97
1363.624,-59.07
1363.639,-59.23
1363.654,-59.12
1363.669,-58.77
1363.684,-58.31
1363.699,-58.83
1363.714,-58.9
1363.729,-58.54
1363.744,-58.66
1363.759,-58.75
1363.774,-58.63
1363.789,-58.5
1363.804,-58.89
1363.819,-58.63
1363.834,-58.35
1363.849,-58.74
1363.864,-58.96
1363.879,-58.73
1363.894,-59.01
1363.909,-58.95
1363.924,-58.77
1363.939,-59.4
1363.954,-59.56
1363.969,-58.74
1363.984,-58.47
1363.999,-59.06
1364.014,-58.86
1364.029,-58.76
1364.044,-58.96
1364.059,-58.84
1364.074,-58.56
1364.089,-59.08
1364.104,-59.13
1364.119,-58.66
1364.134,-58.59
1364.149,-58.55
1364.164,-58.52
1364.179,-58.48
1364.194,-58.79
1364.209,-58.22
1364.224,-58.05
1364.239,-58.54
1364.254,-58.59
1364.269,-58.09
1364.284,-58.29
1364.299,-58.28
1364.314,-58.22
1364.329,-58.3
1364.344,-58.45
1364.359,-57.94
1364.374,-58.04
1364.389,-58.65
1364.404,-58.42
1364.419,-58.38
1364.434,-58.56
1364.449,-58.57
1364.464,-58.35
1364.479,-58.86
1364.494,-58.77
1364.509,-58.15
1364.524,-58.45
1364.539,-58.75
1364.554,-58.43
1364.569,-58.55
1364.584,-58.59
1364.599,-58.42
1364.614,-58.64
1364.629,-59.19
1364.644,-58.68
1364.659,-58.5
1364.674,-58.82
1364.689,-58.76
1364.704,-58.45
1364.719,-58.77
1364.734,-58.85
1364.749,-58.52
1364.764,-58.81
1364.779,-59.18
1364.794,-59.03
1364.809,-59.19
1364.824,-58.96
1364.839,-59.05
1364.854,-59.1
1364.869,-59.25
1364.884,-58.77
1364.899,-58.37
1364.914,-58.35
1364.929,-58.39
1364.944,-58.4
1364.959,-58.38
1364.974,-58.54
1364.989,-58.66
1365.004,-58.59
1365.019,-58.71
1365.034,-58.83
1365.049,-58.85
1365.064,-58.69
1365.079,-58.72
1365.094,-58.96
1365.109,-58.8
1365.124,-58.78
1365.139,-58.65
1365.154,-58.68
1365.169,-58.85
1365.184,-59.02
1365.199,-58.84
1365.214,-58.64
1365.229,-58.79
1365.245,-58.98
1365.259,-58.67
1365.274,-59.19
1365.289,-58.89
1365.304,-58.86
1365.319,-59.13
1365.334,-59.11
1365.349,-58.8
1365.365,-58.76
1365.38,-58.96
1365.395,-58.27
1365.409,-58.39
1365.424,-58.35
1365.439,-58.14
1365.454,-58.03
1365.469,-58.17
1365.484,-58.18
1365.5,-58.05
1365.515,-58.62
1365.53,-58.57
1365.544,-58.17
1365.559,-58.55
1365.574,-58.47
1365.589,-58.26
1365.604,-58.42
1365.62,-58.7
1365.635,-58.06
1365.65,-58.27
1365.665,-58.59
1365.68,-58.48
1365.694,-58.57
1365.709,-58.86
1365.724,-58.86
1365.74,-58.59
1365.755,-59.18
1365.77,-58.69
1365.785,-58.38
1365.8,-58.68
1365.815,-58.49
1365.83,-58.3
1365.844,-58.41
1365.859,-58.43
1365.875,-57.99
1365.89,-58.29
1365.905,-58.77
1365.92,-58.75
1365.935,-58.94
1365.95,-59.03
1365.965,-58.89
1365.979,-58.97
1365.995,-59.57
1366.01,-58.96
1366.025,-58.88
1366.04,-59.04
1366.055,-58.85
1366.07,-58.78
1366.085,-58.79
1366.1,-58.49
1366.115,-58.26
1366.13,-58.71
1366.145,-59.1
1366.16,-59.0
1366.175,-59.04
1366.19,-58.92
1366.205,-58.77
1366.22,-59.21
1366.235,-59.84
1366.25,-59.09
1366.265,-59.13
1366.28,-59.16
1366.295,-59.17
1366.31,-59.03
1366.325,-59.02
1366.34,-58.62
1366.355,-58.36
1366.37,-58.95
1366.385,-58.92
1366.4,-58.91
1366.415,-59.11
1366.43,-59.28
1366.445,-59.08
1366.46,-59.75
1366.475,-60.03
1366.49,-59.22
1366.505,-59.26
1366.52,-59.17
1366.535,-59.16
1366.55,-59.14
1366.565,-58.86
1366.58,-58.49
1366.595,-58.35
1366.61,-58.7
1366.625,-58.52
1366.64,-58.5
1366.655,-58.48
1366.67,-58.63
1366.685,-58.47
1366.7,-58.72
1366.715,-58.95
1366.73,-58.27
1366.745,-58.39
1366.76,-58.3
1366.775,-58.56
1366.79,-58.63
1366.805,-58.49
1366.82,-58.04
1366.835,-58.01
1366.85,-58.37
1366.865,-58.34
1366.88,-58.3
1366.895,-58.26
1366.91,-58.13
1366.925,-58.22
1366.94,-58.42
1366.955,-58.5
1366.97,-58.17
1366.985,-58.16
1367.0,-58.13
1367.015,-58.19
1367.03,-58.19
1367.045,-58.18
1367.06,-57.83
1367.075,-57.85
1367.09,-58.32
1367.105,-58.35
1367.12,-58.3
1367.135,-58.2
1367.15,-58.15
1367.165,-58.24
1367.18,-58.62
1367.195,-58.65
1367.21,-58.24
1367.225,-58.21
1367.24,-58.1
1367.255,-58.06
1367.27,-58.04
1367.285,-57.99
1367.3,-57.65
1367.315,-57.66
1367.33,-58.05
1367.345,-58.2
1367.36,-58.19
1367.375,-57.99
1367.39,-58.08
1367.405,-58.01
1367.42,-58.32
1367.435,-58.2
1367.45,-57.89
1367.465,-57.77
1367.48,-57.8
1367.495,-57.84
1367.51,-57.77
1367.525,-57.8
1367.54,-57.44
1367.555,-57.39
1367.57,-57.63
1367.585,-57.9
1367.6,-57.95
1367.615,-57.79
1367.63,-57.81
1367.645,-57.66
1367.66,-57.96
1367.675,-58.11
1367.69,-57.84
1367.705,-57.76
1367.72,-57.53
1367.735,-57.74
1367.75,-57.8
1367.765,-58.05
1367.78,-57.58
1367.795,-57.55
1367.81,-57.81
1367.825,-57.92
1367.84,-57.93
1367.855,-58.26
1367.87,-57.91
1367.885,-57.89
1367.9,-58.27
1367.915,-58.32
1367.93,-57.88
1367.945,-57.88
1367.96,-57.61
1367.975,-57.43
1367.99,-57.86
1368.005,-57.84
1368.02,-57.44
1368.035,-57.57
1368.05,-57.58
1368.065,-57.31
1368.08,-57.51
1368.095,-57.68
1368.11,-57.33
1368.125,-57.38
1368.14,-57.49
1368.155,-57.55
1368.17,-57.33
1368.185,-57.54
1368.2,-57.42
1368.215,-57.35
1368.23,-57.62
1368.245,-57.69
1368.26,-57.6
1368.275,-57.65
1368.29,-57.82
1368.305,-57.65
1368.32,-57.88
1368.335,-58.02
1368.35,-57.61
1368.365,-57.69
1368.38,-57.9
1368.395,-57.4
1368.41,-57.41
1368.425,-57.64
1368.44,-57.22
1368.455,-57.25
1368.47,-57.52
1368.485,-57.55
1368.5,-57.3
1368.515,-57.89
1368.53,-57.9
1368.545,-57.73
1368.56,-57.93
1368.575,-58.27
1368.59,-57.76
1368.605,-57.73
1368.62,-58.18
1368.635,-57.6
1368.65,-57.82
1368.665,-58.15
1368.68,-57.88
1368.695,-57.82
1368.71,-57.87
1368.725,-58.13
1368.74,-57.68
1368.755,-57.98
1368.77,-57.91
1368.785,-57.71
1368.8,-57.91
1368.815,-58.13
1368.83,-58.03
1368.845,-58.03
1368.86,-58.09
1368.875,-57.92
1368.89,-57.99
1368.905,-58.33
1368.92,-58.05
1368.935,-57.94
1368.95,-58.08
1368.965,-58.37
1368.98,-58.53
1368.995,-58.67
1369.01,-58.31
1369.025,-58.17
1369.04,-58.27
1369.055,-58.42
1369.07,-58.64
1369.085,-58.5
1369.1,-58.39
1369.115,-58.23
1369.13,-58.18
1369.145,-58.62
1369.16,-58.47
1369.175,-58.53
1369.19,-58.36
1369.205,-58.39
1369.22,-58.42
1369.235,-58.73
1369.25,-58.45
1369.265,-58.21
1369.28,-58.45
1369.295,-58.52
1369.31,-58.72
1369.325,-58.64
1369.34,-58.57
1369.355,-58.33
1369.37,-58.62
1369.385,-58.72
1369.4,-58.91
1369.415,-59.18
1369.43,-58.8
1369.445,-59.23
1369.46,-59.21
1369.475,-59.78
1369.49,-59.24
1369.505,-59.0
1369.52,-58.65
1369.535,-58.79
1369.55,-58.69
1369.565,-59.27
1369.58,-59.08
1369.595,-58.87
1369.61,-58.97
1369.625,-59.08
1369.64,-59.44
1369.655,-59.41
1369.67,-59.63
1369.685,-59.02
1369.7,-58.8
1369.715,-59.46
1369.73,-59.42
1369.745,-59.43
1369.76,-59.56
1369.775,-59.02
1369.79,-59.08
1369.805,-59.59
1369.82,-59.38
1369.835,-58.73
1369.85,-59.05
1369.865,-58.94
1369.88,-58.67
1369.895,-59.07
1369.91,-58.96
1369.925,-58.49
1369.94,-58.75
1369.955,-59.37
1369.97,-58.89
1369.985,-58.72
1370.0,-58.92
