wavelength_axis,light_level
1250.0,-74.34
1250.015,-67.26
1250.03,-67.49
1250.045,-75.06
1250.06,-210.0
1250.075,-70.83
1250.09,-68.83
1250.105,-70.31
1250.12,-210.0
1250.135,-210.0
1250.15,-210.0
1250.165,-73.61
1250.18,-68.49
1250.195,-74.64
1250.21,-210.0
1250.225,-210.0
1250.24,-210.0
1250.255,-74.46
1250.27,-73.37
1250.285,-210.0
1250.3,-210.0
1250.315,-210.0
1250.33,-68.26
1250.345,-67.11
1250.36,-69.54
1250.375,-77.99
1250.39,-69.4
1250.405,-67.01
1250.42,-66.32
1250.435,-68.66
1250.45,-70.21
1250.465,-77.18
1250.48,-69.1
1250.495,-65.44
1250.51,-64.88
1250.525,-66.38
1250.54,-72.26
1250.555,-210.0
1250.57,-69.11
1250.585,-67.88
1250.6,-70.73
1250.615,-210.0
1250.63,-210.0
1250.645,-69.05
1250.66,-67.23
1250.675,-66.72
1250.69,-68.53
1250.705,-210.0
1250.72,-210.0
1250.735,-69.49
1250.75,-70.57
1250.765,-210.0
1250.78,-210.0
1250.795,-210.0
1250.81,-210.0
1250.825,-68.69
1250.84,-69.69
1250.855,-210.0
1250.87,-210.0
1250.885,-210.0
1250.9,-71.38
1250.915,-67.75
1250.93,-69.32
1250.945,-210.0
1250.96,-70.23
1250.975,-65.71
1250.99,-64.68
1251.005,-65.88
1251.02,-70.27
1251.035,-210.0
1251.05,-69.66
1251.065,-68.06
1251.08,-69.5
1251.095,-71.28
1251.11,-210.0
1251.125,-73.86
1251.14,-66.28
1251.155,-65.77
1251.17,-66.93
1251.185,-75.66
1251.2,-210.0
1251.215,-72.08
1251.23,-70.94
1251.245,-75.18
1251.26,-80.53
1251.275,-210.0
1251.29,-210.0
1251.305,-70.63
1251.32,-67.45
1251.335,-71.35
1251.35,-210.0
1251.365,-210.0
1251.38,-210.0
1251.395,-210.0
1251.41,-69.93
1251.425,-210.0
1251.44,-210.0
1251.455,-210.0
1251.47,-72.6
1251.485,-68.85
1251.5,-210.0
1251.515,-210.0
1251.53,-210.0
1251.545,-210.0
1251.56,-70.78
1251.575,-67.62
1251.59,-74.29
1251.605,-210.0
1251.62,-69.87
1251.635,-66.43
1251.65,-66.08
1251.665,-67.97
1251.68,-70.14
1251.695,-73.09
1251.71,-67.55
1251.725,-65.43
1251.74,-67.53
1251.755,-77.65
1251.77,-70.48
1251.785,-66.03
1251.8,-64.6
1251.815,-65.0
1251.83,-67.81
1251.845,-68.32
1251.86,-66.56
1251.875,-65.42
1251.89,-63.81
1251.905,-65.58
1251.92,-66.33
1251.935,-68.2
1251.95,-64.49
1251.965,-64.72
1251.98,-64.78
1251.995,-68.51
1252.01,-68.26
1252.025,-64.97
1252.04,-63.3
1252.055,-63.8
1252.07,-67.24
1252.085,-65.34
1252.1,-64.71
1252.115,-63.33
1252.13,-63.79
1252.145,-64.74
1252.16,-67.5
1252.175,-66.44
1252.19,-64.67
1252.205,-63.15
1252.22,-63.69
1252.235,-64.93
1252.25,-63.79
1252.265,-63.99
1252.28,-62.98
1252.295,-64.1
1252.31,-63.96
1252.325,-65.19
1252.34,-64.31
1252.355,-64.29
1252.37,-62.9
1252.385,-63.89
1252.4,-63.87
1252.415,-63.68
1252.43,-63.39
1252.445,-62.68
1252.46,-63.91
1252.475,-63.81
1252.49,-64.84
1252.505,-63.81
1252.52,-63.46
1252.535,-63.59
1252.55,-64.68
1252.565,-64.29
1252.58,-64.48
1252.595,-64.62
1252.61,-63.35
1252.625,-64.98
1252.64,-64.47
1252.655,-65.68
1252.67,-63.55
1252.685,-64.86
1252.7,-64.65
1252.715,-67.14
1252.73,-66.93
1252.745,-65.15
1252.76,-65.52
1252.775,-65.1
1252.79,-67.72
1252.805,-67.66
1252.82,-67.87
1252.835,-65.83
1252.85,-66.61
1252.865,-68.69
1252.88,-73.07
1252.895,-77.33
1252.91,-68.02
1252.925,-67.76
1252.94,-66.69
1252.955,-71.69
1252.97,-67.8
1252.985,-68.82
1253.0,-65.36
1253.015,-67.16
1253.03,-72.07
1253.045,-70.13
1253.06,-68.56
1253.075,-65.16
1253.09,-67.3
1253.105,-68.21
1253.12,-73.97
1253.135,-67.07
1253.15,-66.77
1253.165,-64.63
1253.18,-67.66
1253.195,-67.22
1253.21,-66.66
1253.225,-64.81
1253.24,-64.4
1253.255,-65.69
1253.271,-65.39
1253.285,-66.17
1253.3,-64.02
1253.315,-64.39
1253.33,-64.99
1253.345,-66.99
1253.36,-65.85
1253.375,-65.27
1253.391,-63.69
1253.406,-63.93
1253.421,-66.35
1253.435,-65.83
1253.45,-65.74
1253.465,-64.09
1253.48,-65.07
1253.495,-66.19
1253.51,-69.06
1253.526,-67.83
1253.541,-65.79
1253.556,-65.18
1253.571,-66.57
1253.585,-69.15
1253.6,-66.44
1253.615,-66.94
1253.63,-64.33
1253.646,-66.31
1253.661,-66.32
1253.676,-70.47
1253.691,-66.57
1253.706,-65.74
1253.72,-65.74
1253.735,-68.0
1253.75,-70.21
1253.766,-66.25
1253.781,-65.55
1253.796,-63.6
1253.811,-64.94
1253.826,-65.75
1253.841,-64.96
1253.856,-64.26
1253.87,-63.42
1253.885,-63.59
1253.901,-64.18
1253.916,-65.18
1253.931,-64.17
1253.946,-64.08
1253.961,-63.04
1253.976,-64.55
1253.991,-64.16
1254.005,-64.88
1254.021,-63.3
1254.036,-62.56
1254.051,-64.0
1254.066,-63.95
1254.081,-64.73
1254.096,-63.01
1254.111,-63.57
1254.126,-63.61
1254.141,-65.56
1254.156,-64.87
1254.171,-64.87
1254.186,-63.02
1254.201,-63.73
1254.216,-65.01
1254.231,-65.46
1254.246,-65.18
1254.261,-63.29
1254.276,-65.1
1254.291,-64.98
1254.306,-67.17
1254.321,-65.4
1254.336,-63.96
1254.351,-64.5
1254.366,-65.28
1254.381,-67.14
1254.396,-67.15
1254.411,-66.02
1254.426,-64.74
1254.441,-66.81
1254.456,-66.77
1254.471,-70.04
1254.486,-66.08
1254.501,-64.72
1254.516,-64.94
1254.531,-66.46
1254.546,-67.38
1254.561,-65.69
1254.576,-65.16
1254.591,-64.61
1254.606,-67.09
1254.621,-66.12
1254.636,-67.17
1254.651,-65.46
1254.666,-65.9
1254.681,-66.18
1254.696,-71.54
1254.711,-68.86
1254.726,-65.79
1254.741,-65.74
1254.756,-65.06
1254.771,-67.35
1254.786,-66.47
1254.801,-67.62
1254.816,-65.72
1254.831,-66.49
1254.846,-68.28
1254.861,-69.29
1254.876,-69.45
1254.891,-66.64
1254.906,-67.18
1254.921,-66.75
1254.936,-69.33
1254.951,-66.64
1254.966,-67.5
1254.981,-64.94
1254.996,-66.95
1255.011,-68.25
1255.026,-68.04
1255.041,-68.34
1255.056,-65.92
1255.071,-69.5
1255.086,-67.55
1255.101,-71.64
1255.116,-69.9
1255.131,-68.01
1255.146,-67.25
1255.161,-69.42
1255.176,-73.13
1255.191,-72.07
1255.206,-67.7
1255.221,-66.26
1255.236,-71.04
1255.251,-70.32
1255.266,-210.0
1255.281,-69.5
1255.296,-69.44
1255.311,-70.87
1255.326,-210.0
1255.341,-210.0
1255.356,-77.58
1255.371,-69.52
1255.386,-66.11
1255.401,-71.08
1255.416,-76.82
1255.431,-75.69
1255.446,-68.01
1255.461,-70.77
1255.476,-72.74
1255.491,-210.0
1255.506,-210.0
1255.521,-74.24
1255.536,-70.22
1255.551,-68.83
1255.566,-210.0
1255.581,-75.18
1255.596,-68.84
1255.611,-65.21
1255.626,-66.1
1255.641,-69.05
1255.656,-68.5
1255.671,-68.38
1255.686,-65.85
1255.701,-64.57
1255.716,-66.98
1255.731,-73.03
1255.746,-67.55
1255.761,-67.41
1255.776,-67.95
1255.791,-69.25
1255.806,-210.0
1255.821,-78.3
1255.836,-69.5
1255.851,-66.83
1255.866,-69.31
1255.881,-77.0
1255.896,-71.75
1255.911,-67.08
1255.926,-66.9
1255.941,-66.65
1255.956,-70.39
1255.971,-74.78
1255.986,-78.01
1256.001,-68.32
1256.016,-69.79
1256.031,-81.4
1256.046,-210.0
1256.061,-210.0
1256.076,-70.59
1256.091,-71.0
1256.106,-76.01
1256.121,-82.67
1256.136,-72.61
1256.151,-67.49
1256.166,-66.63
1256.181,-68.46
1256.196,-69.36
1256.211,-77.14
1256.226,-71.37
1256.241,-67.84
1256.256,-80.46
1256.271,-210.0
1256.286,-210.0
1256.301,-210.0
1256.316,-70.76
1256.331,-67.27
1256.346,-68.72
1256.361,-84.79
1256.376,-72.12
1256.391,-210.0
1256.406,-68.48
1256.421,-74.31
1256.436,-210.0
1256.451,-210.0
1256.466,-210.0
1256.481,-74.48
1256.496,-76.87
1256.511,-210.0
1256.526,-210.0
1256.541,-210.0
1256.556,-210.0
1256.571,-68.48
1256.586,-73.32
1256.601,-210.0
1256.616,-210.0
1256.631,-210.0
1256.646,-70.39
1256.661,-210.0
1256.676,-210.0
1256.691,-210.0
1256.706,-210.0
1256.721,-210.0
1256.736,-71.65
1256.751,-210.0
1256.766,-210.0
1256.781,-68.88
1256.796,-68.13
1256.811,-66.23
1256.826,-68.78
1256.841,-66.92
1256.856,-67.62
1256.871,-66.26
1256.886,-65.52
1256.901,-68.39
1256.916,-76.82
1256.931,-70.16
1256.946,-68.36
1256.961,-72.11
1256.976,-69.43
1256.991,-74.86
1257.006,-75.46
1257.021,-69.44
1257.036,-67.9
1257.051,-69.84
1257.066,-69.59
1257.081,-73.19
1257.096,-70.68
1257.111,-68.35
1257.126,-69.7
1257.141,-210.0
1257.156,-210.0
1257.171,-87.13
1257.186,-71.07
1257.201,-69.37
1257.216,-70.12
1257.231,-210.0
1257.246,-80.59
1257.261,-68.63
1257.276,-66.82
1257.291,-67.42
1257.306,-71.56
1257.321,-73.76
1257.336,-71.73
1257.351,-68.5
1257.366,-66.26
1257.381,-74.0
1257.396,-72.24
1257.411,-73.25
1257.426,-67.49
1257.441,-67.09
1257.456,-67.19
1257.471,-67.42
1257.486,-70.31
1257.501,-65.82
1257.516,-64.64
1257.531,-65.16
1257.546,-68.25
1257.561,-67.98
1257.576,-68.41
1257.591,-68.07
1257.606,-66.87
1257.621,-74.28
1257.636,-76.8
1257.651,-75.71
1257.666,-67.86
1257.681,-70.93
1257.696,-72.23
1257.711,-72.31
1257.726,-71.6
1257.741,-68.12
1257.756,-67.43
1257.771,-69.58
1257.786,-210.0
1257.801,-88.62
1257.816,-72.39
1257.831,-73.46
1257.846,-210.0
1257.861,-210.0
1257.876,-210.0
1257.891,-210.0
1257.906,-210.0
1257.921,-210.0
1257.936,-210.0
1257.951,-210.0
1257.966,-72.02
1257.981,-69.72
1257.996,-74.31
1258.011,-81.03
1258.026,-210.0
1258.041,-76.42
1258.056,-67.99
1258.071,-87.48
1258.086,-210.0
1258.101,-210.0
1258.116,-79.23
1258.131,-94.97
1258.146,-69.59
1258.161,-72.34
1258.176,-87.11
1258.191,-69.78
1258.206,-68.95
1258.221,-68.91
1258.236,-70.39
1258.251,-68.33
1258.266,-68.62
1258.281,-68.37
1258.296,-69.01
1258.311,-67.68
1258.326,-68.42
1258.341,-67.69
1258.356,-69.1
1258.371,-210.0
1258.386,-76.01
1258.401,-74.25
1258.416,-72.39
1258.431,-76.63
1258.446,-74.1
1258.461,-72.33
1258.476,-69.43
1258.491,-66.11
1258.506,-66.31
1258.521,-70.2
1258.536,-70.13
1258.551,-65.54
1258.566,-64.76
1258.581,-65.3
1258.596,-65.84
1258.611,-67.55
1258.626,-66.83
1258.641,-66.32
1258.656,-66.7
1258.671,-70.29
1258.686,-71.24
1258.701,-69.75
1258.716,-69.28
1258.731,-67.14
1258.746,-68.01
1258.761,-70.05
1258.776,-70.77
1258.791,-65.25
1258.806,-64.98
1258.821,-65.68
1258.836,-65.78
1258.851,-65.43
1258.866,-65.19
1258.881,-64.93
1258.896,-64.88
1258.911,-67.42
1258.926,-66.1
1258.941,-66.55
1258.956,-66.73
1258.971,-68.17
1258.986,-69.02
1259.001,-68.09
1259.016,-67.96
1259.031,-65.75
1259.046,-65.94
1259.061,-66.91
1259.076,-67.66
1259.091,-65.13
1259.106,-65.55
1259.121,-66.17
1259.136,-64.93
1259.151,-66.82
1259.166,-65.22
1259.181,-65.73
1259.196,-65.17
1259.211,-66.48
1259.226,-66.52
1259.241,-65.83
1259.256,-67.95
1259.271,-66.43
1259.286,-66.37
1259.301,-64.93
1259.316,-66.03
1259.331,-64.81
1259.346,-67.35
1259.361,-65.88
1259.376,-64.15
1259.391,-64.41
1259.406,-64.45
1259.421,-64.96
1259.436,-64.15
1259.451,-65.73
1259.466,-63.88
1259.481,-65.77
1259.496,-66.28
1259.511,-66.77
1259.526,-65.13
1259.541,-63.84
1259.556,-66.21
1259.571,-66.08
1259.586,-67.22
1259.601,-65.15
1259.616,-65.36
1259.631,-65.0
1259.646,-66.74
1259.661,-66.36
1259.676,-64.86
1259.691,-65.3
1259.706,-64.71
1259.721,-66.95
1259.736,-66.49
1259.751,-66.16
1259.766,-64.52
1259.781,-64.0
1259.796,-65.39
1259.811,-65.55
1259.826,-67.19
1259.841,-64.93
1259.856,-66.2
1259.871,-65.26
1259.886,-67.32
1259.901,-66.99
1259.916,-64.93
1259.931,-65.73
1259.946,-66.05
1259.961,-68.52
1259.976,-66.1
1259.991,-67.24
1260.006,-64.49
1260.021,-65.95
1260.036,-66.26
1260.051,-66.6
1260.066,-66.12
1260.081,-64.06
1260.096,-65.2
1260.111,-63.91
1260.126,-64.29
1260.141,-64.33
1260.156,-64.15
1260.171,-65.22
1260.186,-65.95
1260.201,-65.63
1260.216,-65.38
1260.231,-67.71
1260.246,-66.95
1260.261,-66.63
1260.276,-67.07
1260.291,-68.59
1260.306,-69.39
1260.321,-68.27
1260.336,-70.29
1260.351,-65.81
1260.366,-65.92
1260.381,-66.65
1260.396,-66.69
1260.411,-65.1
1260.426,-64.85
1260.441,-65.37
1260.456,-64.73
1260.471,-67.31
1260.486,-65.99
1260.501,-65.48
1260.516,-65.42
1260.531,-66.65
1260.546,-66.61
1260.561,-66.34
1260.576,-66.91
1260.591,-66.43
1260.606,-66.53
1260.621,-67.29
1260.636,-68.31
1260.651,-65.21
1260.666,-64.25
1260.681,-64.68
1260.696,-64.78
1260.711,-65.27
1260.726,-63.49
1260.741,-63.65
1260.756,-63.74
1260.771,-64.85
1260.786,-66.04
1260.801,-66.1
1260.816,-65.79
1260.831,-64.64
1260.846,-67.99
1260.861,-66.22
1260.876,-67.26
1260.891,-64.35
1260.906,-64.82
1260.921,-67.76
1260.936,-67.91
1260.951,-67.0
1260.966,-63.86
1260.981,-64.27
1260.996,-63.75
1261.011,-66.08
1261.026,-64.61
1261.041,-63.34
1261.056,-63.36
1261.071,-63.89
1261.086,-66.72
1261.101,-64.76
1261.116,-66.05
1261.131,-65.27
1261.146,-65.98
1261.161,-68.54
1261.176,-66.21
1261.191,-64.37
1261.206,-64.17
1261.221,-65.63
1261.236,-66.33
1261.251,-67.25
1261.266,-65.74
1261.281,-64.77
1261.297,-65.07
1261.312,-65.5
1261.326,-66.69
1261.341,-63.83
1261.356,-64.09
1261.371,-64.16
1261.386,-65.25
1261.401,-64.93
1261.417,-64.11
1261.432,-63.52
1261.447,-63.75
1261.461,-65.23
1261.476,-65.15
1261.491,-62.83
1261.506,-62.58
1261.521,-62.79
1261.536,-63.77
1261.552,-64.6
1261.567,-64.58
1261.582,-63.37
1261.597,-62.94
1261.611,-64.86
1261.626,-66.02
1261.641,-64.8
1261.656,-63.76
1261.672,-64.26
1261.687,-64.71
1261.702,-65.52
1261.717,-64.28
1261.732,-63.55
1261.746,-63.03
1261.761,-63.85
1261.776,-65.27
1261.792,-63.46
1261.807,-62.5
1261.822,-62.24
1261.837,-62.96
1261.852,-63.2
1261.867,-63.69
1261.882,-62.18
1261.896,-62.26
1261.911,-63.31
1261.927,-62.9
1261.942,-62.7
1261.957,-61.64
1261.972,-62.04
1261.987,-61.77
1262.002,-63.23
1262.017,-62.97
1262.031,-61.8
1262.047,-61.94
1262.062,-61.75
1262.077,-62.87
1262.092,-62.26
1262.107,-62.94
1262.122,-61.85
1262.137,-62.09
1262.152,-63.72
1262.167,-63.39
1262.182,-63.72
1262.197,-62.58
1262.212,-63.37
1262.227,-63.26
1262.242,-63.66
1262.257,-62.64
1262.272,-61.99
1262.287,-62.38
1262.302,-62.23
1262.317,-63.64
1262.332,-62.35
1262.347,-62.98
1262.362,-62.75
1262.377,-63.56
1262.392,-64.88
1262.407,-64.86
1262.422,-64.73
1262.437,-64.29
1262.452,-65.87
1262.467,-65.19
1262.482,-65.36
1262.497,-65.47
1262.512,-66.28
1262.527,-67.55
1262.542,-66.85
1262.557,-67.75
1262.572,-64.87
1262.587,-64.51
1262.602,-65.29
1262.617,-65.74
1262.632,-64.4
1262.647,-62.97
1262.662,-62.94
1262.677,-63.07
1262.692,-65.13
1262.707,-63.36
1262.722,-63.36
1262.737,-63.51
1262.752,-64.41
1262.767,-66.31
1262.782,-65.68
1262.797,-66.11
1262.812,-64.98
1262.827,-66.29
1262.842,-69.76
1262.857,-70.08
1262.872,-65.95
1262.887,-66.64
1262.902,-71.41
1262.917,-70.2
1262.932,-73.4
1262.947,-67.07
1262.962,-68.77
1262.977,-67.4
1262.992,-74.44
1263.007,-72.52
1263.022,-66.65
1263.037,-67.77
1263.052,-68.13
1263.067,-210.0
1263.082,-210.0
1263.097,-69.96
1263.112,-65.95
1263.127,-66.52
1263.142,-72.66
1263.157,-67.62
1263.172,-66.36
1263.187,-64.58
1263.202,-66.38
1263.217,-69.93
1263.232,-210.0
1263.247,-68.34
1263.262,-66.6
1263.277,-68.11
1263.292,-68.6
1263.307,-210.0
1263.322,-69.54
1263.337,-67.48
1263.352,-68.91
1263.367,-71.51
1263.382,-210.0
1263.397,-68.66
1263.412,-65.38
1263.427,-64.94
1263.442,-67.99
1263.457,-68.6
1263.472,-66.82
1263.487,-64.41
1263.502,-64.64
1263.517,-66.69
1263.532,-67.62
1263.547,-68.64
1263.562,-65.79
1263.577,-65.94
1263.592,-71.9
1263.607,-76.23
1263.622,-71.93
1263.637,-68.1
1263.652,-68.34
1263.667,-210.0
1263.682,-210.0
1263.697,-83.05
1263.712,-75.59
1263.727,-75.2
1263.742,-210.0
1263.757,-210.0
1263.772,-210.0
1263.787,-67.84
1263.802,-66.99
1263.817,-71.1
1263.832,-210.0
1263.847,-70.39
1263.862,-66.73
1263.877,-66.87
1263.892,-70.97
1263.907,-69.6
1263.922,-67.14
1263.937,-65.08
1263.952,-65.64
1263.967,-67.43
1263.982,-69.51
1263.997,-70.91
1264.012,-66.27
1264.027,-67.11
1264.042,-76.33
1264.057,-210.0
1264.072,-82.7
1264.087,-68.37
1264.102,-70.47
1264.117,-210.0
1264.132,-210.0
1264.147,-210.0
1264.162,-210.0
1264.177,-210.0
1264.192,-210.0
1264.207,-210.0
1264.222,-210.0
1264.237,-72.5
1264.252,-69.21
1264.267,-79.05
1264.282,-210.0
1264.297,-78.37
1264.312,-67.64
1264.327,-66.3
1264.342,-70.97
1264.357,-69.81
1264.372,-67.02
1264.387,-64.64
1264.402,-64.84
1264.417,-66.89
1264.432,-69.16
1264.447,-69.81
1264.462,-65.29
1264.477,-66.4
1264.492,-71.77
1264.507,-210.0
1264.522,-79.03
1264.537,-69.8
1264.552,-68.23
1264.567,-210.0
1264.582,-210.0
1264.597,-76.12
1264.612,-69.83
1264.627,-68.73
1264.642,-71.91
1264.657,-210.0
1264.672,-80.38
1264.687,-67.96
1264.702,-66.23
1264.717,-69.97
1264.732,-77.29
1264.747,-74.06
1264.762,-67.98
1264.777,-66.39
1264.792,-71.06
1264.807,-210.0
1264.822,-210.0
1264.837,-68.43
1264.852,-67.88
1264.867,-74.08
1264.882,-210.0
1264.897,-71.78
1264.912,-66.41
1264.927,-66.62
1264.942,-70.14
1264.957,-210.0
1264.972,-71.24
1264.987,-67.3
1265.002,-66.13
1265.017,-66.31
1265.032,-72.31
1265.047,-66.87
1265.062,-65.68
1265.077,-65.64
1265.092,-66.58
1265.107,-70.81
1265.122,-67.72
1265.137,-65.75
1265.152,-64.53
1265.167,-65.75
1265.182,-66.92
1265.197,-65.26
1265.212,-63.47
1265.227,-63.34
1265.242,-64.39
1265.257,-65.54
1265.272,-64.25
1265.287,-63.12
1265.302,-63.35
1265.317,-64.93
1265.332,-65.53
1265.347,-65.36
1265.362,-63.49
1265.377,-64.57
1265.392,-67.47
1265.407,-70.75
1265.422,-68.34
1265.437,-65.8
1265.452,-65.11
1265.467,-65.82
1265.482,-69.3
1265.497,-66.6
1265.512,-63.77
1265.527,-64.06
1265.542,-65.32
1265.557,-66.51
1265.572,-64.09
1265.587,-62.59
1265.602,-62.14
1265.617,-63.1
1265.632,-63.56
1265.647,-62.94
1265.662,-61.94
1265.677,-61.56
1265.692,-62.49
1265.707,-63.46
1265.722,-64.1
1265.737,-62.64
1265.752,-62.54
1265.767,-63.22
1265.782,-64.38
1265.797,-64.47
1265.812,-62.49
1265.827,-62.85
1265.842,-64.06
1265.857,-65.72
1265.872,-65.04
1265.887,-64.3
1265.902,-63.95
1265.917,-64.73
1265.932,-67.5
1265.947,-65.29
1265.962,-63.22
1265.977,-62.52
1265.992,-63.8
1266.007,-64.95
1266.022,-64.96
1266.037,-63.51
1266.052,-63.08
1266.067,-64.07
1266.082,-64.8
1266.097,-64.07
1266.112,-63.05
1266.127,-62.6
1266.142,-63.07
1266.157,-64.58
1266.172,-65.76
1266.187,-63.01
1266.202,-63.37
1266.217,-64.62
1266.232,-66.14
1266.247,-65.68
1266.262,-64.68
1266.277,-65.16
1266.292,-66.57
1266.307,-69.28
1266.322,-67.97
1266.337,-66.99
1266.352,-65.95
1266.367,-66.39
1266.382,-68.64
1266.397,-66.91
1266.412,-64.25
1266.427,-63.77
1266.442,-64.61
1266.457,-65.45
1266.472,-66.6
1266.487,-64.32
1266.502,-63.24
1266.517,-64.15
1266.532,-64.57
1266.547,-63.69
1266.562,-62.85
1266.577,-62.6
1266.592,-63.47
1266.607,-65.48
1266.622,-64.28
1266.637,-63.33
1266.652,-63.17
1266.667,-63.51
1266.682,-66.53
1266.697,-66.54
1266.712,-64.89
1266.727,-63.22
1266.742,-64.54
1266.757,-67.18
1266.772,-66.79
1266.787,-64.82
1266.802,-64.33
1266.817,-65.95
1266.832,-67.25
1266.847,-67.77
1266.862,-65.03
1266.877,-64.0
1266.892,-65.22
1266.907,-66.19
1266.922,-66.55
1266.937,-64.0
1266.952,-64.33
1266.967,-64.89
1266.982,-68.93
1266.997,-67.74
1267.012,-64.89
1267.027,-66.18
1267.042,-66.03
1267.057,-71.27
1267.072,-69.8
1267.087,-64.98
1267.102,-65.21
1267.117,-65.86
1267.132,-69.66
1267.147,-67.43
1267.162,-65.19
1267.177,-62.81
1267.192,-63.64
1267.207,-65.95
1267.222,-63.94
1267.237,-63.1
1267.252,-62.3
1267.267,-62.97
1267.282,-63.79
1267.297,-62.68
1267.312,-62.04
1267.327,-61.44
1267.342,-62.63
1267.357,-62.57
1267.372,-62.62
1267.387,-61.86
1267.402,-61.71
1267.417,-63.25
1267.432,-62.88
1267.447,-63.71
1267.462,-62.56
1267.477,-62.61
1267.492,-63.74
1267.507,-63.66
1267.522,-63.51
1267.537,-62.57
1267.552,-63.69
1267.567,-64.35
1267.582,-66.12
1267.597,-65.33
1267.612,-63.26
1267.627,-64.33
1267.642,-65.16
1267.657,-68.05
1267.672,-67.37
1267.687,-64.68
1267.702,-64.25
1267.717,-65.05
1267.732,-69.81
1267.747,-66.42
1267.762,-64.85
1267.777,-64.25
1267.792,-66.14
1267.807,-68.11
1267.822,-65.31
1267.837,-64.59
1267.852,-64.56
1267.867,-65.47
1267.882,-66.54
1267.897,-64.64
1267.912,-63.38
1267.927,-62.89
1267.942,-64.63
1267.957,-64.68
1267.972,-64.45
1267.987,-63.55
1268.002,-63.21
1268.017,-65.19
1268.032,-64.18
1268.047,-64.41
1268.062,-62.64
1268.077,-62.39
1268.092,-64.33
1268.107,-64.45
1268.122,-63.48
1268.137,-62.2
1268.152,-62.51
1268.167,-63.47
1268.182,-63.59
1268.197,-63.57
1268.212,-62.1
1268.227,-63.31
1268.242,-64.0
1268.257,-63.97
1268.272,-62.69
1268.287,-62.3
1268.302,-63.82
1268.317,-63.91
1268.332,-65.22
1268.347,-63.26
1268.362,-62.83
1268.377,-64.96
1268.392,-65.19
1268.407,-65.27
1268.422,-62.87
1268.437,-63.95
1268.452,-64.71
1268.467,-64.78
1268.482,-64.15
1268.497,-62.58
1268.512,-63.48
1268.527,-64.65
1268.542,-66.08
1268.557,-64.39
1268.572,-63.35
1268.587,-63.08
1268.602,-63.34
1268.617,-64.96
1268.632,-63.54
1268.647,-62.9
1268.662,-62.89
1268.677,-63.44
1268.692,-64.28
1268.707,-62.92
1268.722,-63.2
1268.737,-62.91
1268.752,-63.15
1268.767,-63.86
1268.782,-62.94
1268.797,-62.7
1268.812,-61.59
1268.827,-62.77
1268.842,-63.18
1268.857,-62.01
1268.872,-61.99
1268.887,-61.51
1268.902,-62.97
1268.917,-63.18
1268.932,-63.01
1268.947,-62.05
1268.962,-61.92
1268.977,-63.34
1268.992,-62.8
1269.007,-62.76
1269.022,-61.51
1269.037,-61.73
1269.052,-62.77
1269.067,-62.96
1269.082,-62.72
1269.097,-61.22
1269.112,-61.64
1269.127,-62.61
1269.142,-62.87
1269.157,-62.53
1269.172,-61.5
1269.188,-62.15
1269.202,-63.09
1269.217,-63.19
1269.232,-62.36
1269.247,-61.62
1269.262,-62.73
1269.277,-63.54
1269.292,-64.24
1269.307,-62.49
1269.323,-62.89
1269.338,-63.52
1269.352,-63.94
1269.367,-64.78
1269.382,-62.66
1269.397,-63.01
1269.412,-63.87
1269.427,-66.5
1269.443,-65.28
1269.458,-63.06
1269.473,-63.59
1269.487,-64.89
1269.502,-67.46
1269.517,-65.87
1269.532,-64.35
1269.547,-64.31
1269.563,-65.0
1269.578,-67.89
1269.593,-65.6
1269.608,-64.8
1269.623,-64.47
1269.637,-66.41
1269.652,-70.44
1269.667,-65.87
1269.682,-64.94
1269.698,-66.09
1269.713,-70.83
1269.728,-72.92
1269.743,-66.31
1269.758,-65.81
1269.772,-64.94
1269.787,-67.83
1269.802,-68.13
1269.818,-67.92
1269.833,-65.65
1269.848,-65.16
1269.863,-69.29
1269.878,-67.36
1269.893,-67.31
1269.908,-64.24
1269.922,-64.04
1269.938,-66.02
1269.953,-67.48
1269.968,-66.73
1269.983,-64.26
1269.998,-64.37
1270.013,-67.58
1270.028,-67.69
1270.043,-67.58
1270.058,-64.47
1270.073,-65.22
1270.088,-66.46
1270.103,-67.53
1270.118,-66.41
1270.133,-64.56
1270.148,-67.34
1270.163,-68.64
1270.178,-210.0
1270.193,-70.08
1270.208,-66.73
1270.223,-71.47
1270.238,-74.25
1270.253,-210.0
1270.268,-69.12
1270.283,-69.15
1270.298,-78.93
1270.313,-210.0
1270.328,-210.0
1270.343,-67.75
1270.358,-69.61
1270.373,-72.5
1270.388,-210.0
1270.403,-210.0
1270.418,-69.74
1270.433,-67.58
1270.448,-68.87
1270.463,-210.0
1270.478,-210.0
1270.493,-70.55
1270.508,-67.54
1270.523,-68.59
1270.538,-210.0
1270.553,-70.8
1270.568,-68.57
1270.583,-68.6
1270.598,-69.91
1270.613,-210.0
1270.628,-71.87
1270.643,-70.27
1270.658,-67.37
1270.673,-76.73
1270.688,-210.0
1270.703,-70.08
1270.718,-66.81
1270.733,-64.53
1270.748,-67.63
1270.763,-68.26
1270.778,-66.69
1270.793,-65.12
1270.808,-64.51
1270.823,-66.22
1270.838,-67.12
1270.853,-67.14
1270.868,-64.69
1270.883,-64.51
1270.898,-66.91
1270.913,-67.82
1270.928,-67.05
1270.943,-64.66
1270.958,-64.79
1270.973,-67.63
1270.988,-67.26
1271.003,-68.19
1271.018,-64.39
1271.033,-66.65
1271.048,-67.18
1271.063,-66.18
1271.078,-64.35
1271.093,-63.37
1271.108,-65.45
1271.123,-66.14
1271.138,-68.7
1271.153,-64.94
1271.168,-64.32
1271.183,-64.5
1271.198,-65.05
1271.213,-66.22
1271.228,-63.6
1271.243,-63.84
1271.258,-64.18
1271.273,-67.28
1271.288,-67.23
1271.303,-63.89
1271.318,-64.58
1271.333,-65.16
1271.348,-69.11
1271.363,-66.51
1271.378,-64.11
1271.393,-63.59
1271.408,-63.72
1271.423,-65.78
1271.438,-64.77
1271.453,-64.28
1271.468,-64.19
1271.483,-64.54
1271.498,-65.83
1271.513,-64.33
1271.528,-64.75
1271.543,-65.06
1271.558,-65.99
1271.573,-68.36
1271.588,-65.0
1271.603,-65.21
1271.618,-64.59
1271.633,-66.68
1271.648,-67.13
1271.663,-65.86
1271.678,-65.04
1271.693,-64.88
1271.708,-67.86
1271.723,-66.94
1271.738,-67.76
1271.753,-67.54
1271.768,-66.97
1271.783,-74.94
1271.798,-72.59
1271.813,-71.06
1271.828,-73.14
1271.843,-71.81
1271.858,-210.0
1271.873,-210.0
1271.888,-210.0
1271.903,-210.0
1271.918,-210.0
1271.933,-210.0
1271.948,-210.0
1271.963,-210.0
1271.978,-210.0
1271.993,-210.0
1272.008,-210.0
1272.023,-210.0
1272.038,-210.0
1272.053,-210.0
1272.068,-210.0
1272.083,-210.0
1272.098,-210.0
1272.113,-210.0
1272.128,-210.0
1272.143,-210.0
1272.158,-210.0
1272.173,-210.0
1272.188,-210.0
1272.203,-210.0
1272.218,-210.0
1272.233,-210.0
1272.248,-210.0
1272.263,-210.0
1272.278,-210.0
1272.293,-210.0
1272.308,-210.0
1272.323,-210.0
1272.338,-210.0
1272.353,-210.0
1272.368,-210.0
1272.383,-210.0
1272.398,-210.0
1272.413,-210.0
1272.428,-210.0
1272.443,-210.0
1272.458,-210.0
1272.473,-210.0
1272.488,-210.0
1272.503,-210.0
1272.518,-210.0
1272.533,-210.0
1272.548,-210.0
1272.563,-210.0
1272.578,-210.0
1272.593,-210.0
1272.608,-210.0
1272.623,-210.0
1272.638,-210.0
1272.653,-210.0
1272.668,-210.0
1272.683,-210.0
1272.698,-210.0
1272.713,-210.0
1272.728,-210.0
1272.743,-210.0
1272.758,-210.0
1272.773,-210.0
1272.788,-210.0
1272.803,-210.0
1272.818,-210.0
1272.833,-210.0
1272.848,-210.0
1272.863,-210.0
1272.878,-210.0
1272.893,-210.0
1272.908,-210.0
1272.923,-210.0
1272.938,-210.0
1272.953,-210.0
1272.968,-210.0
1272.983,-210.0
1272.998,-210.0
1273.013,-210.0
1273.028,-210.0
1273.043,-210.0
1273.058,-210.0
1273.073,-210.0
1273.088,-210.0
1273.103,-210.0
1273.118,-210.0
1273.133,-210.0
1273.148,-210.0
1273.163,-210.0
1273.178,-210.0
1273.193,-80.74
1273.208,-210.0
1273.223,-71.04
1273.238,-71.15
1273.253,-71.48
1273.268,-70.92
1273.283,-70.49
1273.298,-66.0
1273.313,-65.43
1273.328,-65.44
1273.343,-66.18
1273.358,-66.83
1273.373,-64.03
1273.388,-64.54
1273.403,-65.24
1273.418,-65.36
1273.433,-64.58
1273.448,-63.4
1273.463,-63.9
1273.478,-64.0
1273.493,-64.94
1273.508,-62.95
1273.523,-62.22
1273.538,-62.3
1273.553,-62.58
1273.568,-62.86
1273.583,-61.63
1273.598,-61.21
1273.613,-61.58
1273.628,-61.54
1273.643,-61.58
1273.658,-60.93
1273.673,-60.75
1273.688,-60.79
1273.703,-60.76
1273.718,-61.18
1273.733,-60.5
1273.748,-60.53
1273.763,-60.68
1273.778,-60.83
1273.793,-61.01
1273.808,-60.59
1273.823,-60.72
1273.838,-60.91
1273.853,-61.02
1273.868,-60.86
1273.883,-60.65
1273.898,-60.77
1273.913,-61.06
1273.928,-60.92
1273.943,-60.89
1273.958,-60.59
1273.973,-60.32
1273.988,-60.72
1274.003,-60.68
1274.018,-60.42
1274.033,-60.38
1274.048,-60.45
1274.063,-60.44
1274.078,-60.64
1274.093,-60.1
1274.108,-60.09
1274.123,-60.37
1274.138,-60.33
1274.153,-60.32
1274.168,-59.78
1274.183,-60.31
1274.198,-60.24
1274.213,-60.31
1274.228,-60.09
1274.243,-59.68
1274.258,-60.32
1274.273,-60.29
1274.288,-60.19
1274.303,-60.09
1274.318,-60.12
1274.333,-61.02
1274.348,-60.86
1274.363,-60.69
1274.378,-60.58
1274.393,-60.83
1274.408,-61.1
1274.423,-61.51
1274.438,-61.12
1274.453,-60.9
1274.468,-61.21
1274.483,-61.49
1274.498,-61.41
1274.513,-60.75
1274.528,-61.01
1274.543,-61.79
1274.558,-61.56
1274.573,-61.55
1274.588,-61.43
1274.603,-61.57
1274.618,-62.21
1274.633,-61.55
1274.648,-61.53
1274.663,-61.81
1274.678,-61.94
1274.693,-63.05
1274.708,-62.64
1274.723,-62.58
1274.738,-62.23
1274.753,-62.44
1274.768,-64.45
1274.783,-64.17
1274.798,-63.67
1274.813,-63.62
1274.828,-64.27
1274.843,-66.72
1274.858,-65.3
1274.873,-65.01
1274.888,-64.39
1274.903,-65.69
1274.918,-68.22
1274.933,-68.84
1274.948,-67.07
1274.963,-66.57
1274.978,-76.77
1274.993,-210.0
1275.008,-210.0
1275.023,-77.76
1275.038,-78.02
1275.053,-210.0
1275.068,-210.0
1275.083,-210.0
1275.098,-210.0
1275.113,-210.0
1275.128,-210.0
1275.143,-210.0
1275.158,-210.0
1275.173,-210.0
1275.188,-210.0
1275.203,-210.0
1275.218,-210.0
1275.233,-210.0
1275.248,-210.0
1275.263,-210.0
1275.278,-210.0
1275.293,-210.0
1275.308,-210.0
1275.323,-210.0
1275.338,-210.0
1275.353,-210.0
1275.368,-210.0
1275.383,-210.0
1275.398,-210.0
1275.413,-210.0
1275.428,-210.0
1275.443,-210.0
1275.458,-210.0
1275.473,-210.0
1275.488,-210.0
1275.503,-210.0
1275.518,-210.0
1275.533,-210.0
1275.548,-210.0
1275.563,-210.0
1275.578,-210.0
1275.593,-210.0
1275.608,-210.0
1275.623,-210.0
1275.638,-210.0
1275.653,-210.0
1275.668,-210.0
1275.683,-210.0
1275.698,-210.0
1275.713,-210.0
1275.728,-210.0
1275.743,-210.0
1275.758,-210.0
1275.773,-210.0
1275.788,-210.0
1275.803,-210.0
1275.818,-210.0
1275.833,-210.0
1275.848,-210.0
1275.863,-210.0
1275.878,-210.0
1275.893,-210.0
1275.908,-210.0
1275.923,-210.0
1275.938,-210.0
1275.953,-210.0
1275.968,-210.0
1275.983,-210.0
1275.998,-210.0
1276.013,-210.0
1276.028,-210.0
1276.043,-210.0
1276.058,-210.0
1276.073,-210.0
1276.088,-210.0
1276.103,-210.0
1276.118,-210.0
1276.133,-210.0
1276.148,-210.0
1276.163,-210.0
1276.178,-210.0
1276.193,-210.0
1276.208,-210.0
1276.223,-210.0
1276.238,-210.0
1276.253,-210.0
1276.268,-210.0
1276.283,-210.0
1276.298,-210.0
1276.313,-210.0
1276.328,-210.0
1276.343,-210.0
1276.358,-210.0
1276.373,-210.0
1276.388,-210.0
1276.403,-210.0
1276.418,-210.0
1276.433,-210.0
1276.448,-210.0
1276.463,-210.0
1276.478,-210.0
1276.493,-210.0
1276.508,-210.0
1276.523,-210.0
1276.538,-210.0
1276.553,-210.0
1276.568,-210.0
1276.583,-210.0
1276.598,-210.0
1276.613,-210.0
1276.628,-210.0
1276.643,-210.0
1276.658,-210.0
1276.673,-210.0
1276.688,-210.0
1276.703,-210.0
1276.718,-210.0
1276.733,-210.0
1276.748,-210.0
1276.763,-210.0
1276.778,-210.0
1276.793,-210.0
1276.808,-210.0
1276.823,-210.0
1276.838,-210.0
1276.853,-210.0
1276.868,-210.0
1276.883,-210.0
1276.898,-210.0
1276.913,-210.0
1276.928,-210.0
1276.943,-210.0
1276.958,-210.0
1276.973,-210.0
1276.988,-210.0
1277.003,-210.0
1277.018,-210.0
1277.033,-210.0
1277.048,-210.0
1277.063,-210.0
1277.078,-210.0
1277.093,-210.0
1277.108,-210.0
1277.123,-75.5
1277.138,-84.8
1277.153,-210.0
1277.168,-77.52
1277.183,-70.48
1277.198,-68.87
1277.214,-210.0
1277.228,-210.0
1277.243,-210.0
1277.258,-71.16
1277.273,-69.02
1277.288,-78.36
1277.303,-210.0
1277.318,-76.06
1277.333,-68.29
1277.349,-67.85
1277.364,-72.37
1277.378,-77.36
1277.393,-70.09
1277.408,-67.13
1277.423,-67.15
1277.438,-70.73
1277.453,-68.5
1277.469,-64.82
1277.484,-63.81
1277.499,-64.57
1277.514,-66.46
1277.528,-65.14
1277.543,-63.58
1277.558,-63.21
1277.573,-64.01
1277.589,-65.62
1277.604,-63.53
1277.619,-63.42
1277.634,-63.92
1277.649,-64.57
1277.663,-67.12
1277.678,-64.55
1277.693,-64.45
1277.708,-65.49
1277.724,-67.23
1277.739,-68.33
1277.754,-64.74
1277.769,-64.78
1277.784,-67.19
1277.799,-68.75
1277.813,-68.63
1277.828,-64.94
1277.844,-65.23
1277.859,-67.06
1277.874,-69.76
1277.889,-69.92
1277.904,-66.76
1277.919,-68.8
1277.934,-71.93
1277.948,-71.1
1277.964,-67.23
1277.979,-66.49
1277.994,-68.59
1278.009,-71.54
1278.024,-68.26
1278.039,-65.78
1278.054,-65.14
1278.069,-66.98
1278.084,-67.97
1278.099,-66.09
1278.114,-64.34
1278.129,-64.36
1278.144,-66.68
1278.159,-66.22
1278.174,-64.87
1278.189,-64.22
1278.204,-64.86
1278.219,-65.72
1278.234,-63.69
1278.249,-63.11
1278.264,-62.97
1278.279,-63.48
1278.294,-65.59
1278.309,-63.75
1278.324,-63.12
1278.339,-63.65
1278.354,-65.63
1278.369,-67.44
1278.384,-64.61
1278.399,-63.99
1278.414,-65.26
1278.429,-66.61
1278.444,-67.47
1278.459,-64.88
1278.474,-65.06
1278.489,-68.02
1278.504,-69.9
1278.519,-68.25
1278.534,-65.66
1278.549,-66.65
1278.564,-70.44
1278.579,-71.98
1278.594,-65.89
1278.609,-65.49
1278.624,-67.1
1278.639,-68.5
1278.654,-67.94
1278.669,-65.58
1278.684,-65.28
1278.699,-66.69
1278.714,-66.79
1278.729,-64.93
1278.744,-62.66
1278.759,-63.09
1278.774,-64.19
1278.789,-64.51
1278.804,-63.51
1278.819,-62.19
1278.834,-62.6
1278.849,-63.88
1278.864,-64.3
1278.879,-63.23
1278.894,-62.63
1278.909,-64.21
1278.924,-66.06
1278.939,-65.46
1278.954,-64.22
1278.969,-63.52
1278.984,-65.61
1278.999,-67.98
1279.014,-65.41
1279.029,-64.26
1279.044,-64.78
1279.059,-69.1
1279.074,-69.77
1279.089,-66.25
1279.104,-65.01
1279.119,-65.91
1279.134,-72.41
1279.149,-69.17
1279.164,-67.23
1279.179,-66.44
1279.194,-66.68
1279.209,-75.07
1279.224,-68.09
1279.239,-67.68
1279.254,-67.41
1279.269,-69.4
1279.284,-210.0
1279.299,-67.6
1279.314,-66.38
1279.329,-67.98
1279.344,-68.77
1279.359,-68.28
1279.374,-64.82
1279.389,-63.69
1279.404,-64.23
1279.419,-65.04
1279.434,-65.08
1279.449,-62.89
1279.464,-62.95
1279.479,-63.75
1279.494,-63.46
1279.509,-63.34
1279.524,-62.26
1279.539,-63.33
1279.554,-63.5
1279.569,-63.27
1279.584,-63.47
1279.599,-62.99
1279.614,-63.64
1279.629,-63.34
1279.644,-63.0
1279.659,-63.61
1279.674,-63.13
1279.689,-62.82
1279.704,-62.58
1279.719,-62.47
1279.734,-63.23
1279.749,-63.92
1279.764,-64.3
1279.779,-65.64
1279.794,-64.85
1279.809,-64.76
1279.824,-64.85
1279.839,-66.15
1279.854,-68.13
1279.869,-66.84
1279.884,-68.16
1279.899,-68.11
1279.914,-67.76
1279.929,-66.86
1279.944,-66.5
1279.959,-66.34
1279.974,-66.63
1279.989,-66.02
1280.004,-64.51
1280.019,-63.14
1280.034,-63.62
1280.049,-63.61
1280.064,-63.67
1280.079,-63.08
1280.094,-62.46
1280.109,-62.85
1280.124,-63.31
1280.139,-63.45
1280.154,-62.66
1280.169,-61.8
1280.184,-62.02
1280.199,-62.72
1280.214,-62.75
1280.229,-62.17
1280.244,-62.06
1280.259,-62.17
1280.274,-62.53
1280.289,-62.31
1280.304,-61.86
1280.319,-61.95
1280.334,-63.08
1280.349,-63.23
1280.364,-62.76
1280.379,-62.49
1280.394,-63.07
1280.409,-65.93
1280.424,-66.35
1280.439,-64.66
1280.454,-64.59
1280.469,-65.15
1280.484,-68.78
1280.499,-68.39
1280.514,-67.59
1280.529,-68.69
1280.544,-67.72
1280.559,-210.0
1280.574,-210.0
1280.589,-69.99
1280.604,-72.07
1280.619,-78.58
1280.634,-210.0
1280.649,-210.0
1280.664,-71.06
1280.679,-70.24
1280.694,-210.0
1280.709,-210.0
1280.724,-210.0
1280.739,-72.92
1280.754,-74.54
1280.769,-210.0
1280.784,-210.0
1280.799,-68.72
1280.814,-67.55
1280.829,-68.11
1280.844,-210.0
1280.859,-70.75
1280.874,-66.25
1280.889,-65.85
1280.904,-66.22
1280.919,-68.25
1280.934,-66.29
1280.949,-63.8
1280.964,-64.08
1280.979,-65.81
1280.994,-66.49
1281.009,-64.55
1281.024,-64.56
1281.039,-67.56
1281.054,-71.24
1281.069,-69.52
1281.084,-65.9
1281.099,-65.83
1281.114,-70.02
1281.129,-83.6
1281.144,-69.32
1281.159,-67.37
1281.174,-70.72
1281.189,-210.0
1281.204,-210.0
1281.219,-68.79
1281.234,-68.98
1281.249,-72.51
1281.264,-210.0
1281.279,-210.0
1281.294,-70.9
1281.309,-69.69
1281.324,-210.0
1281.339,-210.0
1281.354,-68.31
1281.369,-66.14
1281.384,-66.06
1281.399,-69.91
1281.414,-66.9
1281.429,-64.21
1281.444,-64.17
1281.459,-65.2
1281.474,-69.54
1281.489,-66.32
1281.504,-64.25
1281.519,-64.69
1281.534,-65.76
1281.549,-68.56
1281.564,-64.94
1281.579,-63.28
1281.594,-64.05
1281.609,-65.1
1281.624,-65.34
1281.639,-62.94
1281.654,-63.7
1281.669,-64.99
1281.684,-65.54
1281.699,-65.33
1281.714,-63.25
1281.729,-64.07
1281.744,-66.23
1281.759,-65.92
1281.774,-64.2
1281.789,-63.34
1281.804,-64.47
1281.819,-66.34
1281.834,-66.44
1281.849,-64.07
1281.864,-65.11
1281.879,-66.24
1281.894,-67.53
1281.909,-67.15
1281.924,-64.76
1281.939,-65.67
1281.954,-66.39
1281.969,-66.59
1281.984,-65.13
1281.999,-64.26
1282.014,-66.42
1282.029,-67.9
1282.044,-65.64
1282.059,-64.35
1282.074,-64.25
1282.089,-66.51
1282.104,-66.68
1282.119,-65.25
1282.134,-63.59
1282.149,-64.21
1282.164,-65.71
1282.179,-65.01
1282.194,-63.18
1282.209,-65.18
1282.224,-67.16
1282.239,-69.58
1282.254,-65.99
1282.269,-65.18
1282.284,-69.46
1282.299,-71.96
1282.314,-210.0
1282.329,-71.1
1282.344,-69.23
1282.359,-210.0
1282.374,-210.0
1282.389,-210.0
1282.404,-72.0
1282.419,-84.08
1282.434,-210.0
1282.449,-210.0
1282.464,-210.0
1282.479,-70.87
1282.494,-210.0
1282.509,-210.0
1282.524,-72.71
1282.539,-71.72
1282.554,-68.9
1282.569,-80.72
1282.584,-210.0
1282.599,-69.45
1282.614,-71.16
1282.629,-70.79
1282.644,-210.0
1282.659,-210.0
1282.674,-68.36
1282.689,-73.12
1282.704,-75.8
1282.719,-74.95
1282.734,-71.33
1282.749,-66.95
1282.764,-75.11
1282.779,-210.0
1282.794,-75.81
1282.809,-210.0
1282.824,-75.8
1282.839,-210.0
1282.854,-210.0
1282.869,-94.06
1282.884,-84.59
1282.899,-75.89
1282.914,-210.0
1282.929,-210.0
1282.944,-210.0
1282.959,-210.0
1282.974,-210.0
1282.989,-210.0
1283.004,-210.0
1283.019,-210.0
1283.034,-210.0
1283.049,-210.0
1283.064,-210.0
1283.079,-210.0
1283.094,-210.0
1283.109,-210.0
1283.124,-210.0
1283.139,-210.0
1283.154,-210.0
1283.169,-210.0
1283.184,-210.0
1283.199,-210.0
1283.214,-210.0
1283.229,-210.0
1283.244,-210.0
1283.259,-210.0
1283.274,-210.0
1283.289,-210.0
1283.304,-210.0
1283.319,-210.0
1283.334,-210.0
1283.349,-210.0
1283.364,-79.2
1283.379,-210.0
1283.394,-210.0
1283.409,-210.0
1283.424,-210.0
1283.439,-210.0
1283.454,-210.0
1283.469,-210.0
1283.484,-210.0
1283.499,-210.0
1283.514,-210.0
1283.529,-210.0
1283.544,-210.0
1283.559,-210.0
1283.574,-210.0
1283.589,-210.0
1283.604,-210.0
1283.619,-210.0
1283.634,-78.84
1283.649,-74.87
1283.664,-210.0
1283.679,-210.0
1283.694,-210.0
1283.709,-77.37
1283.724,-210.0
1283.739,-210.0
1283.754,-210.0
1283.769,-210.0
1283.784,-77.82
1283.799,-210.0
1283.814,-210.0
1283.829,-210.0
1283.844,-70.9
1283.859,-70.68
1283.874,-210.0
1283.889,-210.0
1283.904,-72.52
1283.919,-68.74
1283.934,-69.15
1283.949,-210.0
1283.964,-75.12
1283.979,-67.89
1283.994,-67.07
1284.009,-68.48
1284.024,-210.0
1284.039,-70.14
1284.054,-67.2
1284.069,-71.22
1284.084,-87.91
1284.099,-73.17
1284.114,-67.27
1284.129,-65.54
1284.144,-69.53
1284.159,-71.66
1284.174,-67.82
1284.189,-65.45
1284.204,-66.05
1284.219,-75.09
1284.234,-68.82
1284.249,-66.03
1284.264,-64.37
1284.279,-64.74
1284.294,-67.77
1284.309,-66.21
1284.324,-65.59
1284.339,-65.73
1284.354,-67.83
1284.369,-82.24
1284.384,-67.96
1284.399,-65.24
1284.414,-68.69
1284.429,-73.15
1284.444,-69.4
1284.459,-65.07
1284.474,-64.16
1284.489,-68.14
1284.504,-68.56
1284.519,-67.9
1284.534,-65.08
1284.549,-64.72
1284.564,-69.16
1284.579,-66.25
1284.594,-65.82
1284.609,-66.02
1284.624,-66.39
1284.639,-73.04
1284.654,-68.13
1284.669,-66.46
1284.684,-65.47
1284.699,-67.01
1284.714,-72.08
1284.729,-66.4
1284.744,-64.67
1284.759,-68.29
1284.774,-69.18
1284.789,-69.79
1284.804,-65.16
1284.819,-65.01
1284.834,-69.57
1284.849,-69.16
1284.864,-68.23
1284.879,-65.18
1284.894,-64.78
1284.909,-69.1
1284.924,-68.38
1284.939,-69.82
1284.954,-68.67
1284.969,-66.51
1284.984,-210.0
1284.999,-74.25
1285.014,-68.47
1285.029,-67.65
1285.044,-68.48
1285.059,-210.0
1285.074,-70.04
1285.089,-65.85
1285.104,-70.13
1285.119,-72.73
1285.134,-71.49
1285.149,-66.49
1285.164,-65.36
1285.179,-72.63
1285.194,-73.92
1285.209,-70.33
1285.224,-65.42
1285.24,-66.6
1285.255,-71.61
1285.269,-69.17
1285.284,-73.07
1285.299,-69.35
1285.314,-68.5
1285.329,-210.0
1285.344,-69.15
1285.359,-68.81
1285.375,-66.96
1285.39,-68.74
1285.404,-210.0
1285.419,-69.18
1285.434,-66.21
1285.449,-69.85
1285.464,-210.0
1285.479,-210.0
1285.495,-73.85
1285.51,-68.47
1285.525,-210.0
1285.54,-210.0
1285.554,-210.0
1285.569,-71.2
1285.584,-90.27
1285.599,-210.0
1285.615,-210.0
1285.63,-210.0
1285.645,-75.72
1285.66,-210.0
1285.675,-210.0
1285.689,-210.0
1285.704,-73.26
1285.719,-72.84
1285.734,-72.29
1285.75,-210.0
1285.765,-68.05
1285.78,-67.19
1285.795,-77.83
1285.81,-78.45
1285.825,-210.0
1285.839,-67.61
1285.854,-67.7
1285.87,-76.47
1285.885,-72.56
1285.9,-73.13
1285.915,-66.67
1285.93,-68.63
1285.945,-81.87
1285.96,-67.97
1285.974,-71.07
1285.99,-71.01
1286.005,-71.37
1286.02,-210.0
1286.035,-68.28
1286.05,-67.54
1286.065,-67.32
1286.08,-66.38
1286.095,-68.33
1286.11,-66.29
1286.125,-67.0
1286.14,-70.5
1286.155,-71.73
1286.17,-76.21
1286.185,-67.04
1286.2,-67.43
1286.215,-71.6
1286.23,-73.79
1286.245,-71.59
1286.26,-67.19
1286.275,-73.04
1286.29,-76.03
1286.305,-69.45
1286.32,-75.58
1286.335,-83.02
1286.35,-210.0
1286.365,-210.0
1286.38,-71.79
1286.395,-72.32
1286.41,-70.06
1286.425,-68.77
1286.44,-69.04
1286.455,-67.05
1286.47,-67.47
1286.485,-66.64
1286.5,-67.22
1286.515,-67.88
1286.53,-64.68
1286.545,-65.62
1286.56,-67.13
1286.575,-67.63
1286.59,-67.93
1286.605,-67.67
1286.62,-69.57
1286.635,-73.54
1286.65,-68.19
1286.665,-68.35
1286.68,-68.88
1286.695,-68.35
1286.71,-71.02
1286.725,-66.62
1286.74,-67.64
1286.755,-68.71
1286.77,-69.28
1286.785,-68.43
1286.8,-65.45
1286.815,-67.7
1286.83,-68.42
1286.845,-69.04
1286.86,-70.44
1286.875,-69.76
1286.89,-210.0
1286.905,-210.0
1286.92,-210.0
1286.935,-210.0
1286.95,-210.0
1286.965,-210.0
1286.98,-78.06
1286.995,-67.81
1287.01,-68.67
1287.025,-68.22
1287.04,-67.96
1287.055,-68.08
1287.07,-67.91
1287.085,-72.21
1287.1,-75.05
1287.115,-70.64
1287.13,-68.77
1287.145,-69.83
1287.16,-70.62
1287.175,-76.5
1287.19,-76.02
1287.205,-70.61
1287.22,-74.37
1287.235,-91.91
1287.25,-71.09
1287.265,-72.23
1287.28,-68.46
1287.295,-72.6
1287.31,-70.44
1287.325,-68.67
1287.34,-67.72
1287.355,-66.0
1287.37,-67.03
1287.385,-69.08
1287.4,-67.79
1287.415,-66.94
1287.43,-70.1
1287.445,-69.58
1287.46,-71.0
1287.475,-68.67
1287.49,-69.38
1287.505,-71.73
1287.52,-69.35
1287.535,-70.9
1287.55,-68.41
1287.565,-70.17
1287.58,-71.95
1287.595,-69.27
1287.61,-68.19
1287.625,-67.5
1287.64,-65.06
1287.655,-65.79
1287.67,-65.23
1287.685,-64.16
1287.7,-66.01
1287.715,-64.34
1287.73,-65.2
1287.745,-64.38
1287.76,-64.26
1287.775,-64.88
1287.79,-65.6
1287.805,-66.03
1287.82,-67.23
1287.835,-67.72
1287.85,-69.19
1287.865,-68.2
1287.88,-67.14
1287.895,-66.7
1287.91,-65.54
1287.925,-66.29
1287.94,-65.26
1287.955,-63.87
1287.97,-65.06
1287.985,-64.74
1288.0,-65.42
1288.015,-65.99
1288.03,-65.93
1288.045,-67.88
1288.06,-67.58
1288.075,-65.85
1288.09,-66.08
1288.105,-64.96
1288.12,-67.33
1288.135,-66.77
1288.15,-64.7
1288.165,-66.64
1288.18,-64.9
1288.195,-64.89
1288.21,-65.29
1288.225,-64.22
1288.24,-64.95
1288.255,-64.73
1288.27,-64.88
1288.285,-65.98
1288.3,-63.95
1288.315,-65.94
1288.33,-65.7
1288.345,-64.52
1288.36,-65.0
1288.375,-64.09
1288.39,-63.21
1288.405,-63.62
1288.42,-63.09
1288.435,-63.19
1288.45,-63.16
1288.465,-62.87
1288.48,-63.65
1288.495,-62.71
1288.51,-63.12
1288.525,-63.18
1288.54,-63.13
1288.555,-64.39
1288.57,-64.37
1288.585,-64.51
1288.6,-64.58
1288.615,-63.48
1288.63,-63.39
1288.645,-64.56
1288.66,-63.7
1288.675,-64.3
1288.69,-63.75
1288.705,-63.68
1288.72,-64.57
1288.735,-63.83
1288.75,-64.92
1288.765,-65.64
1288.78,-66.23
1288.795,-66.35
1288.81,-66.75
1288.825,-65.85
1288.84,-65.29
1288.855,-63.5
1288.87,-63.94
1288.885,-63.42
1288.9,-63.47
1288.915,-64.06
1288.93,-63.22
1288.945,-63.45
1288.96,-63.39
1288.975,-63.53
1288.99,-64.78
1289.005,-64.89
1289.02,-64.26
1289.035,-64.54
1289.05,-63.49
1289.065,-64.12
1289.08,-64.03
1289.095,-63.84
1289.11,-65.17
1289.125,-63.4
1289.14,-63.93
1289.155,-63.69
1289.17,-63.42
1289.185,-63.88
1289.2,-63.62
1289.215,-64.08
1289.23,-65.37
1289.245,-64.51
1289.26,-65.19
1289.275,-64.84
1289.29,-64.76
1289.305,-67.18
1289.32,-64.17
1289.335,-64.8
1289.35,-64.84
1289.365,-64.93
1289.38,-65.32
1289.395,-65.05
1289.41,-65.55
1289.425,-70.76
1289.44,-68.83
1289.455,-73.2
1289.47,-73.4
1289.485,-69.51
1289.5,-210.0
1289.515,-71.46
1289.53,-78.34
1289.545,-74.38
1289.56,-71.17
1289.575,-71.43
1289.59,-67.81
1289.605,-67.07
1289.62,-68.83
1289.635,-67.9
1289.65,-68.51
1289.665,-71.02
1289.68,-69.43
1289.695,-210.0
1289.71,-78.64
1289.725,-210.0
1289.74,-210.0
1289.755,-210.0
1289.77,-210.0
1289.785,-75.2
1289.8,-68.8
1289.815,-69.68
1289.83,-67.33
1289.845,-67.76
1289.86,-69.34
1289.875,-67.95
1289.89,-71.79
1289.905,-69.04
1289.92,-69.7
1289.935,-69.9
1289.95,-70.02
1289.965,-79.54
1289.98,-210.0
1289.995,-86.05
1290.01,-77.59
1290.025,-75.66
1290.04,-73.14
1290.055,-76.16
1290.07,-70.85
1290.085,-78.29
1290.1,-71.35
1290.115,-69.35
1290.13,-75.89
1290.145,-70.77
1290.16,-210.0
1290.175,-210.0
1290.19,-210.0
1290.205,-210.0
1290.22,-210.0
1290.235,-210.0
1290.25,-210.0
1290.265,-210.0
1290.28,-210.0
1290.295,-210.0
1290.31,-210.0
1290.325,-210.0
1290.34,-210.0
1290.355,-210.0
1290.37,-210.0
1290.385,-210.0
1290.4,-210.0
1290.415,-210.0
1290.43,-210.0
1290.445,-210.0
1290.46,-69.87
1290.475,-69.59
1290.49,-69.75
1290.505,-69.7
1290.52,-72.65
1290.535,-66.34
1290.55,-67.63
1290.565,-68.93
1290.58,-69.32
1290.595,-68.58
1290.61,-67.91
1290.625,-72.96
1290.64,-210.0
1290.655,-72.16
1290.67,-70.88
1290.685,-71.0
1290.7,-70.75
1290.715,-100.53
1290.73,-66.73
1290.745,-67.61
1290.76,-75.62
1290.775,-70.54
1290.79,-71.54
1290.805,-69.61
1290.82,-70.5
1290.835,-210.0
1290.85,-77.11
1290.865,-70.06
1290.88,-71.26
1290.895,-72.9
1290.91,-210.0
1290.925,-70.72
1290.94,-69.18
1290.955,-210.0
1290.97,-210.0
1290.985,-210.0
1291.0,-69.46
1291.015,-70.22
1291.03,-210.0
1291.045,-210.0
1291.06,-71.34
1291.075,-69.52
1291.09,-68.36
1291.105,-210.0
1291.12,-210.0
1291.135,-69.56
1291.15,-72.57
1291.165,-210.0
1291.18,-71.12
1291.195,-67.63
1291.21,-65.82
1291.225,-68.16
1291.24,-70.37
1291.255,-66.44
1291.27,-65.5
1291.285,-68.46
1291.3,-70.42
1291.315,-71.01
1291.33,-70.46
1291.345,-69.87
1291.36,-70.09
1291.375,-210.0
1291.39,-70.82
1291.405,-68.0
1291.42,-67.76
1291.435,-69.9
1291.45,-68.23
1291.465,-66.44
1291.48,-66.1
1291.495,-67.52
1291.51,-69.55
1291.525,-66.68
1291.54,-66.76
1291.555,-66.9
1291.57,-74.95
1291.585,-67.59
1291.6,-66.38
1291.615,-66.59
1291.63,-68.8
1291.645,-66.69
1291.66,-66.12
1291.675,-65.97
1291.69,-70.47
1291.705,-72.7
1291.72,-68.66
1291.735,-67.81
1291.75,-67.98
1291.765,-69.13
1291.78,-67.93
1291.795,-64.88
1291.81,-64.89
1291.825,-66.0
1291.84,-65.98
1291.855,-64.77
1291.87,-64.43
1291.885,-67.12
1291.9,-68.63
1291.915,-67.84
1291.93,-66.35
1291.945,-66.7
1291.96,-68.0
1291.975,-67.57
1291.99,-64.65
1292.005,-64.91
1292.02,-64.56
1292.035,-64.37
1292.05,-64.37
1292.065,-63.83
1292.08,-64.47
1292.095,-68.28
1292.11,-65.14
1292.125,-64.68
1292.14,-64.28
1292.155,-64.74
1292.17,-64.62
1292.185,-64.95
1292.2,-64.17
1292.215,-66.38
1292.23,-66.07
1292.245,-65.2
1292.26,-64.09
1292.275,-65.39
1292.29,-65.91
1292.305,-65.13
1292.32,-63.47
1292.335,-62.63
1292.35,-63.25
1292.365,-65.06
1292.38,-63.24
1292.395,-62.73
1292.41,-63.59
1292.425,-66.38
1292.44,-68.52
1292.455,-65.26
1292.47,-65.22
1292.485,-66.15
1292.5,-71.93
1292.515,-66.89
1292.53,-65.22
1292.545,-65.63
1292.56,-67.41
1292.575,-67.97
1292.59,-67.11
1292.605,-66.04
1292.62,-73.36
1292.635,-70.21
1292.65,-70.91
1292.665,-69.32
1292.68,-69.6
1292.695,-69.22
1292.71,-68.29
1292.725,-65.03
1292.74,-65.2
1292.755,-66.58
1292.77,-67.23
1292.785,-65.22
1292.8,-64.71
1292.815,-67.43
1292.83,-69.74
1292.845,-68.49
1292.86,-67.97
1292.875,-68.37
1292.89,-68.72
1292.905,-69.06
1292.92,-64.93
1292.935,-65.51
1292.95,-66.98
1292.965,-67.3
1292.98,-65.49
1292.995,-65.4
1293.01,-66.04
1293.025,-72.77
1293.04,-67.2
1293.055,-65.44
1293.07,-65.24
1293.085,-67.62
1293.1,-66.49
1293.115,-66.28
1293.13,-65.07
1293.145,-69.53
1293.16,-73.79
1293.175,-71.61
1293.19,-67.69
1293.205,-70.08
1293.22,-73.62
1293.235,-73.25
1293.25,-68.39
1293.266,-67.91
1293.281,-70.24
1293.295,-70.27
1293.31,-68.37
1293.325,-69.63
1293.34,-210.0
1293.355,-210.0
1293.37,-210.0
1293.385,-70.92
1293.401,-210.0
1293.416,-210.0
1293.43,-82.15
1293.445,-65.8
1293.46,-66.42
1293.475,-67.68
1293.49,-75.76
1293.505,-67.86
1293.521,-66.35
1293.536,-70.18
1293.551,-210.0
1293.566,-80.1
1293.58,-66.88
1293.595,-66.14
1293.61,-69.28
1293.625,-67.82
1293.641,-66.06
1293.656,-64.4
1293.671,-66.97
1293.686,-71.28
1293.701,-67.01
1293.715,-65.41
1293.73,-66.46
1293.745,-72.63
1293.76,-70.57
1293.776,-65.76
1293.791,-65.63
1293.806,-70.68
1293.821,-73.46
1293.836,-68.18
1293.851,-65.95
1293.865,-67.44
1293.88,-70.18
1293.896,-69.15
1293.911,-66.38
1293.926,-67.43
1293.941,-74.82
1293.956,-74.17
1293.971,-66.86
1293.986,-68.31
1294.001,-71.28
1294.016,-210.0
1294.031,-68.27
1294.046,-67.77
1294.061,-71.46
1294.076,-210.0
1294.091,-210.0
1294.106,-68.73
1294.121,-68.33
1294.136,-210.0
1294.151,-70.89
1294.166,-67.2
1294.181,-66.56
1294.196,-67.42
1294.211,-72.74
1294.226,-66.79
1294.241,-65.23
1294.256,-65.53
1294.271,-68.97
1294.286,-66.99
1294.301,-64.46
1294.316,-64.49
1294.331,-66.07
1294.346,-66.35
1294.361,-64.95
1294.376,-63.52
1294.391,-65.97
1294.406,-68.0
1294.421,-66.14
1294.436,-65.28
1294.451,-67.07
1294.466,-69.85
1294.481,-73.8
1294.496,-66.51
1294.511,-64.83
1294.526,-66.61
1294.541,-68.75
1294.556,-65.81
1294.571,-65.54
1294.586,-65.96
1294.601,-70.25
1294.616,-74.84
1294.631,-69.62
1294.646,-69.47
1294.661,-74.15
1294.676,-76.14
1294.691,-66.18
1294.706,-65.76
1294.721,-66.13
1294.736,-67.31
1294.751,-66.24
1294.766,-66.45
1294.781,-66.71
1294.796,-75.18
1294.811,-72.15
1294.826,-71.81
1294.841,-70.71
1294.856,-69.87
1294.871,-70.42
1294.886,-70.2
1294.901,-66.5
1294.916,-67.5
1294.931,-67.9
1294.946,-66.63
1294.961,-65.72
1294.976,-67.03
1294.991,-67.68
1295.006,-68.7
1295.021,-64.93
1295.036,-65.02
1295.051,-65.93
1295.066,-66.1
1295.081,-66.5
1295.096,-63.88
1295.111,-64.36
1295.126,-68.24
1295.141,-67.57
1295.156,-67.97
1295.171,-67.87
1295.186,-67.19
1295.201,-73.68
1295.216,-67.48
1295.231,-65.8
1295.246,-65.43
1295.261,-67.18
1295.276,-67.62
1295.291,-66.5
1295.306,-66.35
1295.321,-69.56
1295.336,-70.24
1295.351,-69.81
1295.366,-67.61
1295.381,-70.57
1295.396,-69.3
1295.411,-69.03
1295.426,-65.73
1295.441,-65.57
1295.456,-66.14
1295.471,-66.79
1295.486,-65.6
1295.501,-64.84
1295.516,-66.28
1295.531,-70.31
1295.546,-65.1
1295.561,-64.79
1295.576,-64.9
1295.591,-65.82
1295.606,-66.37
1295.621,-64.19
1295.636,-63.35
1295.651,-65.81
1295.666,-66.51
1295.681,-65.57
1295.696,-65.1
1295.711,-65.72
1295.726,-70.05
1295.741,-72.55
1295.756,-66.72
1295.771,-67.16
1295.786,-68.05
1295.801,-68.82
1295.816,-67.74
1295.831,-64.45
1295.846,-64.1
1295.861,-67.87
1295.876,-65.27
1295.891,-63.72
1295.906,-64.12
1295.921,-65.06
1295.936,-68.27
1295.951,-64.81
1295.966,-64.61
1295.981,-66.78
1295.996,-65.71
1296.011,-65.13
1296.026,-65.06
1296.041,-65.86
1296.056,-69.36
1296.071,-67.87
1296.086,-65.05
1296.101,-67.31
1296.116,-77.4
1296.131,-80.17
1296.146,-67.81
1296.161,-64.57
1296.176,-66.98
1296.191,-69.12
1296.206,-64.89
1296.221,-64.7
1296.236,-67.33
1296.251,-77.02
1296.266,-74.79
1296.281,-66.06
1296.296,-67.94
1296.311,-210.0
1296.326,-78.53
1296.341,-69.3
1296.356,-67.23
1296.371,-69.27
1296.386,-210.0
1296.401,-72.97
1296.416,-67.21
1296.431,-70.41
1296.446,-210.0
1296.461,-76.85
1296.476,-68.59
1296.491,-66.48
1296.506,-77.6
1296.521,-210.0
1296.536,-68.52
1296.551,-69.21
1296.566,-210.0
1296.581,-210.0
1296.596,-210.0
1296.611,-71.7
1296.626,-74.22
1296.641,-210.0
1296.656,-72.5
1296.671,-69.37
1296.686,-68.42
1296.701,-210.0
1296.716,-210.0
1296.731,-76.14
1296.746,-69.27
1296.761,-210.0
1296.776,-210.0
1296.791,-210.0
1296.806,-68.65
1296.821,-72.29
1296.836,-210.0
1296.851,-210.0
1296.866,-210.0
1296.881,-210.0
1296.896,-210.0
1296.911,-210.0
1296.926,-210.0
1296.941,-78.12
1296.956,-210.0
1296.971,-210.0
1296.986,-210.0
1297.001,-210.0
1297.016,-210.0
1297.031,-210.0
1297.046,-210.0
1297.061,-210.0
1297.076,-210.0
1297.091,-210.0
1297.106,-210.0
1297.121,-210.0
1297.136,-71.1
1297.151,-81.75
1297.166,-93.14
1297.181,-72.78
1297.196,-68.02
1297.211,-71.46
1297.226,-210.0
1297.241,-69.15
1297.256,-67.35
1297.271,-69.58
1297.286,-210.0
1297.301,-210.0
1297.316,-68.59
1297.331,-67.94
1297.346,-210.0
1297.361,-78.46
1297.376,-77.83
1297.391,-71.33
1297.406,-72.62
1297.421,-210.0
1297.436,-82.87
1297.451,-67.32
1297.466,-75.07
1297.481,-78.91
1297.496,-210.0
1297.511,-71.29
1297.526,-68.47
1297.541,-210.0
1297.556,-210.0
1297.571,-68.42
1297.586,-71.28
1297.601,-76.41
1297.616,-210.0
1297.631,-210.0
1297.646,-69.6
1297.661,-210.0
1297.676,-210.0
1297.691,-210.0
1297.706,-71.66
1297.721,-69.23
1297.736,-70.93
1297.751,-210.0
1297.766,-67.37
1297.781,-66.19
1297.796,-75.91
1297.811,-210.0
1297.826,-70.26
1297.841,-68.25
1297.856,-71.0
1297.871,-210.0
1297.886,-210.0
1297.901,-68.88
1297.916,-73.6
1297.931,-210.0
1297.946,-210.0
1297.961,-75.05
1297.976,-210.0
1297.991,-210.0
1298.006,-210.0
1298.021,-210.0
1298.036,-210.0
1298.051,-210.0
1298.066,-210.0
1298.081,-210.0
1298.096,-210.0
1298.111,-210.0
1298.126,-210.0
1298.141,-210.0
1298.156,-210.0
1298.171,-210.0
1298.186,-210.0
1298.201,-210.0
1298.216,-210.0
1298.231,-210.0
1298.246,-210.0
1298.261,-210.0
1298.276,-210.0
1298.291,-210.0
1298.306,-210.0
1298.321,-210.0
1298.336,-210.0
1298.351,-71.54
1298.366,-210.0
1298.381,-210.0
1298.396,-210.0
1298.411,-73.1
1298.426,-69.23
1298.441,-71.75
1298.456,-210.0
1298.471,-83.17
1298.486,-74.27
1298.501,-210.0
1298.516,-210.0
1298.531,-210.0
1298.546,-80.44
1298.561,-71.5
1298.576,-210.0
1298.591,-210.0
1298.606,-72.75
1298.621,-72.19
1298.636,-210.0
1298.651,-210.0
1298.666,-210.0
1298.681,-67.2
1298.696,-69.0
1298.711,-210.0
1298.726,-71.79
1298.741,-69.52
1298.756,-69.92
1298.771,-210.0
1298.786,-210.0
1298.801,-67.76
1298.816,-66.0
1298.831,-69.47
1298.846,-72.06
1298.861,-66.68
1298.876,-64.62
1298.891,-67.39
1298.906,-70.06
1298.921,-68.88
1298.936,-65.36
1298.951,-65.81
1298.966,-70.71
1298.981,-65.83
1298.996,-64.46
1299.011,-64.25
1299.026,-64.97
1299.041,-66.45
1299.056,-64.11
1299.071,-63.85
1299.086,-65.27
1299.101,-67.68
1299.116,-65.91
1299.131,-64.55
1299.146,-64.09
1299.161,-67.44
1299.176,-65.47
1299.191,-63.7
1299.206,-64.54
1299.221,-66.35
1299.236,-66.02
1299.251,-64.6
1299.266,-63.4
1299.281,-64.98
1299.296,-66.44
1299.311,-63.23
1299.326,-63.91
1299.341,-64.92
1299.356,-66.84
1299.371,-66.86
1299.386,-64.18
1299.401,-64.61
1299.416,-69.15
1299.431,-67.49
1299.446,-65.87
1299.461,-64.77
1299.476,-67.4
1299.491,-71.14
1299.506,-66.85
1299.521,-65.27
1299.536,-68.81
1299.551,-68.37
1299.566,-67.87
1299.581,-67.49
1299.596,-68.81
1299.611,-68.45
1299.626,-71.08
1299.641,-64.9
1299.656,-65.06
1299.671,-67.8
1299.686,-69.81
1299.701,-68.94
1299.716,-67.08
1299.731,-68.54
1299.746,-210.0
1299.761,-70.96
1299.776,-67.67
1299.791,-71.45
1299.806,-75.81
1299.821,-75.64
1299.836,-77.07
1299.851,-210.0
1299.866,-77.75
1299.881,-210.0
1299.896,-69.78
1299.911,-70.62
1299.926,-74.22
1299.941,-72.38
1299.956,-71.22
1299.971,-70.74
1299.986,-76.32
1300.001,-74.25
1300.016,-68.28
1300.031,-68.78
1300.046,-69.06
1300.061,-71.78
1300.076,-70.1
1300.091,-68.43
1300.106,-69.07
1300.121,-69.9
1300.136,-69.18
1300.151,-68.97
1300.166,-67.14
1300.181,-69.15
1300.196,-69.61
1300.211,-68.24
1300.226,-69.06
1300.241,-69.68
1300.256,-68.19
1300.271,-67.78
1300.286,-67.11
1300.301,-67.18
1300.316,-68.06
1300.331,-67.31
1300.346,-66.73
1300.361,-67.95
1300.376,-66.21
1300.391,-67.67
1300.406,-68.34
1300.421,-67.14
1300.436,-66.89
1300.451,-67.05
1300.466,-67.03
1300.481,-68.97
1300.496,-65.01
1300.511,-64.51
1300.526,-66.06
1300.541,-65.59
1300.556,-65.39
1300.571,-65.3
1300.586,-65.18
1300.601,-64.84
1300.616,-65.36
1300.631,-64.11
1300.646,-64.18
1300.661,-64.77
1300.676,-64.64
1300.691,-64.69
1300.706,-64.52
1300.721,-64.13
1300.736,-65.64
1300.751,-64.04
1300.766,-64.76
1300.781,-64.34
1300.796,-64.29
1300.811,-65.85
1300.826,-65.97
1300.841,-65.29
1300.856,-63.63
1300.871,-64.91
1300.886,-65.44
1300.901,-65.22
1300.916,-64.07
1300.931,-63.64
1300.946,-65.23
1300.961,-65.09
1300.976,-64.22
1300.991,-64.58
1301.006,-66.66
1301.021,-68.17
1301.036,-68.3
1301.051,-65.66
1301.066,-66.82
1301.081,-67.73
1301.096,-66.65
1301.111,-64.15
1301.126,-64.81
1301.141,-66.82
1301.156,-67.0
1301.171,-66.01
1301.186,-66.08
1301.201,-67.67
1301.216,-67.67
1301.231,-65.48
1301.246,-64.01
1301.261,-64.91
1301.276,-69.54
1301.292,-67.44
1301.307,-65.48
1301.321,-68.1
1301.336,-71.36
1301.351,-71.74
1301.366,-67.0
1301.381,-68.91
1301.396,-210.0
1301.411,-210.0
1301.427,-68.28
1301.442,-68.45
1301.457,-71.54
1301.471,-210.0
1301.486,-67.49
1301.501,-67.24
1301.516,-74.52
1301.531,-76.32
1301.547,-69.17
1301.562,-66.57
1301.577,-76.78
1301.592,-210.0
1301.606,-80.38
1301.621,-69.05
1301.636,-69.25
1301.651,-210.0
1301.667,-210.0
1301.682,-70.47
1301.697,-70.37
1301.712,-77.05
1301.727,-210.0
1301.742,-76.99
1301.756,-69.18
1301.771,-69.88
1301.786,-210.0
1301.802,-73.49
1301.817,-66.48
1301.832,-70.38
1301.847,-210.0
1301.862,-210.0
1301.877,-73.4
1301.891,-69.45
1301.906,-210.0
1301.922,-210.0
1301.937,-74.93
1301.952,-72.92
1301.967,-210.0
1301.982,-210.0
1301.997,-210.0
1302.012,-70.37
1302.027,-210.0
1302.042,-210.0
1302.057,-210.0
1302.072,-71.44
1302.087,-210.0
1302.102,-210.0
1302.117,-210.0
1302.132,-210.0
1302.147,-72.74
1302.162,-210.0
1302.177,-76.92
1302.192,-71.02
1302.207,-71.95
1302.222,-75.8
1302.237,-210.0
1302.252,-210.0
1302.267,-210.0
1302.282,-210.0
1302.297,-210.0
1302.312,-210.0
1302.327,-74.99
1302.342,-210.0
1302.357,-87.13
1302.372,-210.0
1302.387,-210.0
1302.402,-70.8
1302.417,-210.0
1302.432,-76.07
1302.447,-70.92
1302.462,-210.0
1302.477,-73.85
1302.492,-71.82
1302.507,-71.4
1302.522,-69.08
1302.537,-71.49
1302.552,-73.43
1302.567,-73.32
1302.582,-67.8
1302.597,-69.87
1302.612,-67.78
1302.627,-68.01
1302.642,-68.83
1302.657,-66.14
1302.672,-67.67
1302.687,-68.76
1302.702,-66.94
1302.717,-69.98
1302.732,-66.39
1302.747,-64.67
1302.762,-65.06
1302.777,-64.57
1302.792,-64.98
1302.807,-65.68
1302.822,-64.9
1302.837,-63.97
1302.852,-64.13
1302.867,-62.85
1302.882,-63.14
1302.897,-62.78
1302.912,-61.89
1302.927,-62.98
1302.942,-62.9
1302.957,-62.42
1302.972,-62.88
1302.987,-62.19
1303.002,-62.14
1303.017,-62.53
1303.032,-61.68
1303.047,-61.75
1303.062,-62.05
1303.077,-61.76
1303.092,-61.38
1303.107,-62.39
1303.122,-61.79
1303.137,-62.0
1303.152,-61.62
1303.167,-61.59
1303.182,-62.91
1303.197,-62.64
1303.212,-62.08
1303.227,-62.35
1303.242,-62.14
1303.257,-61.76
1303.272,-62.45
1303.287,-61.56
1303.302,-61.91
1303.317,-62.59
1303.332,-62.54
1303.347,-61.68
1303.362,-62.61
1303.377,-61.95
1303.392,-61.92
1303.407,-62.08
1303.422,-61.11
1303.437,-61.77
1303.452,-61.95
1303.467,-61.29
1303.482,-61.25
1303.497,-61.76
1303.512,-61.87
1303.527,-62.15
1303.542,-62.13
1303.557,-62.38
1303.572,-63.18
1303.587,-62.75
1303.602,-62.06
1303.617,-62.72
1303.632,-62.96
1303.647,-62.99
1303.662,-64.47
1303.677,-63.62
1303.692,-62.89
1303.707,-63.09
1303.722,-62.34
1303.737,-62.95
1303.752,-64.22
1303.767,-63.83
1303.782,-64.36
1303.797,-65.17
1303.812,-64.26
1303.827,-64.52
1303.842,-65.33
1303.857,-63.5
1303.872,-65.42
1303.887,-66.41
1303.902,-66.43
1303.917,-68.16
1303.932,-67.31
1303.947,-66.81
1303.962,-66.54
1303.977,-67.24
1303.992,-66.69
1304.007,-70.55
1304.022,-67.14
1304.037,-67.86
1304.052,-69.2
1304.067,-67.2
1304.082,-68.12
1304.097,-69.67
1304.112,-67.47
1304.127,-66.41
1304.142,-67.0
1304.157,-67.25
1304.172,-70.38
1304.187,-67.87
1304.202,-66.71
1304.217,-66.83
1304.232,-69.99
1304.247,-66.54
1304.262,-66.36
1304.277,-66.51
1304.292,-75.2
1304.307,-71.56
1304.322,-68.97
1304.337,-69.14
1304.352,-72.12
1304.367,-69.24
1304.382,-66.65
1304.397,-67.68
1304.412,-69.98
1304.427,-75.66
1304.442,-66.89
1304.457,-67.48
1304.472,-67.16
1304.487,-68.11
1304.502,-67.45
1304.517,-67.58
1304.532,-68.11
1304.547,-69.03
1304.562,-68.34
1304.577,-64.7
1304.592,-66.57
1304.607,-66.58
1304.622,-67.47
1304.637,-65.94
1304.652,-66.7
1304.667,-66.46
1304.682,-66.35
1304.697,-65.42
1304.712,-66.35
1304.727,-70.12
1304.742,-66.9
1304.757,-65.79
1304.772,-65.73
1304.787,-66.84
1304.802,-66.23
1304.817,-65.58
1304.832,-65.81
1304.847,-65.58
1304.862,-71.11
1304.877,-66.75
1304.892,-65.55
1304.907,-71.0
1304.922,-72.17
1304.937,-68.71
1304.952,-66.78
1304.967,-69.63
1304.982,-70.03
1304.997,-68.43
1305.012,-64.71
1305.027,-67.6
1305.042,-76.2
1305.057,-66.37
1305.072,-65.88
1305.087,-67.11
1305.102,-69.43
1305.117,-68.05
1305.132,-67.44
1305.147,-67.83
1305.162,-210.0
1305.177,-71.28
1305.192,-66.36
1305.207,-69.81
1305.222,-80.83
1305.237,-75.6
1305.252,-67.78
1305.267,-68.14
1305.282,-77.02
1305.297,-69.16
1305.312,-65.76
1305.327,-65.39
1305.342,-70.57
1305.357,-68.87
1305.372,-67.23
1305.387,-66.1
1305.402,-67.38
1305.417,-70.31
1305.432,-66.18
1305.447,-66.63
1305.462,-68.48
1305.477,-210.0
1305.492,-77.08
1305.507,-69.19
1305.522,-70.29
1305.537,-210.0
1305.552,-79.01
1305.567,-66.67
1305.582,-68.6
1305.597,-77.18
1305.612,-83.95
1305.627,-66.73
1305.642,-65.06
1305.657,-66.82
1305.672,-68.96
1305.687,-66.01
1305.702,-66.45
1305.717,-68.41
1305.732,-71.2
1305.747,-69.23
1305.762,-66.11
1305.777,-66.96
1305.792,-68.29
1305.807,-66.82
1305.822,-64.97
1305.837,-65.07
1305.852,-67.01
1305.867,-64.7
1305.882,-63.88
1305.897,-65.1
1305.912,-63.66
1305.927,-63.99
1305.942,-62.9
1305.957,-63.07
1305.972,-63.56
1305.987,-63.63
1306.002,-62.68
1306.017,-63.69
1306.032,-64.23
1306.047,-64.1
1306.062,-64.37
1306.077,-64.1
1306.092,-64.79
1306.107,-65.55
1306.122,-63.91
1306.137,-63.64
1306.152,-64.45
1306.167,-63.5
1306.182,-64.63
1306.197,-64.29
1306.212,-63.22
1306.227,-63.61
1306.242,-63.06
1306.257,-62.81
1306.272,-63.55
1306.287,-63.61
1306.302,-63.83
1306.317,-64.78
1306.332,-64.88
1306.347,-63.33
1306.362,-65.01
1306.377,-63.53
1306.392,-63.84
1306.407,-65.64
1306.422,-64.73
1306.437,-66.13
1306.452,-66.02
1306.467,-64.15
1306.482,-64.48
1306.497,-64.45
1306.512,-63.84
1306.527,-64.17
1306.542,-64.18
1306.557,-63.12
1306.572,-63.89
1306.587,-64.02
1306.602,-63.62
1306.617,-64.44
1306.632,-64.01
1306.647,-65.27
1306.662,-66.88
1306.677,-65.49
1306.692,-64.24
1306.707,-65.22
1306.722,-65.18
1306.737,-64.52
1306.752,-64.75
1306.767,-64.2
1306.782,-65.8
1306.797,-67.47
1306.812,-64.89
1306.827,-65.41
1306.842,-68.65
1306.857,-67.69
1306.872,-68.17
1306.887,-67.57
1306.902,-67.45
1306.917,-73.47
1306.932,-67.8
1306.947,-67.01
1306.962,-71.43
1306.977,-210.0
1306.992,-69.13
1307.007,-71.47
1307.022,-70.43
1307.037,-69.28
1307.052,-68.6
1307.067,-66.15
1307.082,-66.98
1307.097,-72.16
1307.112,-66.9
1307.127,-65.41
1307.142,-67.41
1307.157,-69.64
1307.172,-83.32
1307.187,-67.25
1307.202,-67.19
1307.217,-101.62
1307.232,-210.0
1307.247,-71.54
1307.262,-72.94
1307.277,-210.0
1307.292,-210.0
1307.307,-70.9
1307.322,-68.28
1307.337,-68.71
1307.352,-210.0
1307.367,-68.77
1307.382,-67.87
1307.397,-77.03
1307.412,-210.0
1307.427,-69.75
1307.442,-65.55
1307.457,-66.67
1307.472,-72.06
1307.487,-70.9
1307.502,-67.05
1307.517,-68.06
1307.532,-76.71
1307.547,-70.38
1307.562,-68.38
1307.577,-68.38
1307.592,-210.0
1307.607,-72.72
1307.622,-66.95
1307.637,-69.0
1307.652,-73.74
1307.667,-210.0
1307.682,-68.65
1307.697,-69.65
1307.712,-70.53
1307.727,-210.0
1307.742,-68.1
1307.757,-66.97
1307.772,-210.0
1307.787,-74.13
1307.802,-66.16
1307.817,-68.23
1307.832,-72.15
1307.847,-210.0
1307.862,-72.29
1307.877,-66.96
1307.892,-73.45
1307.907,-82.56
1307.922,-67.11
1307.937,-68.44
1307.952,-210.0
1307.967,-210.0
1307.982,-68.28
1307.997,-67.29
1308.012,-67.27
1308.027,-210.0
1308.042,-72.26
1308.057,-66.83
1308.072,-68.67
1308.087,-210.0
1308.102,-66.92
1308.117,-66.38
1308.132,-79.93
1308.147,-210.0
1308.162,-68.63
1308.177,-65.23
1308.192,-65.19
1308.207,-70.47
1308.222,-67.45
1308.237,-64.63
1308.252,-65.3
1308.267,-69.4
1308.282,-65.1
1308.297,-64.43
1308.312,-67.17
1308.327,-68.42
1308.342,-67.43
1308.357,-64.94
1308.372,-64.4
1308.387,-67.04
1308.402,-65.43
1308.417,-63.11
1308.432,-64.52
1308.447,-67.18
1308.462,-65.49
1308.477,-64.45
1308.492,-65.05
1308.507,-65.81
1308.522,-65.72
1308.537,-64.02
1308.552,-62.98
1308.567,-65.09
1308.582,-65.07
1308.597,-62.94
1308.612,-63.55
1308.627,-65.61
1308.642,-64.14
1308.657,-63.68
1308.672,-63.2
1308.687,-63.5
1308.702,-65.11
1308.717,-64.4
1308.732,-62.81
1308.747,-64.84
1308.762,-65.23
1308.777,-63.09
1308.792,-63.11
1308.807,-65.37
1308.822,-64.73
1308.837,-64.65
1308.852,-63.46
1308.867,-63.78
1308.882,-65.36
1308.897,-64.27
1308.912,-63.33
1308.927,-65.56
1308.942,-65.71
1308.957,-63.22
1308.972,-62.67
1308.987,-62.62
1309.002,-63.8
1309.017,-64.36
1309.032,-62.4
1309.047,-62.64
1309.062,-64.44
1309.077,-63.76
1309.092,-62.54
1309.107,-63.76
1309.122,-64.73
1309.137,-64.31
1309.152,-62.75
1309.167,-63.52
1309.182,-66.1
1309.198,-67.78
1309.212,-64.08
1309.227,-64.36
1309.242,-68.48
1309.257,-66.19
1309.272,-63.82
1309.287,-63.87
1309.302,-65.0
1309.318,-65.18
1309.333,-63.47
1309.347,-63.87
1309.362,-66.03
1309.377,-67.43
1309.392,-64.29
1309.407,-65.09
1309.422,-69.6
1309.438,-69.44
1309.453,-66.69
1309.468,-66.39
1309.483,-67.44
1309.497,-67.41
1309.512,-67.37
1309.527,-67.18
1309.542,-71.63
1309.557,-210.0
1309.573,-69.46
1309.588,-68.05
1309.603,-68.71
1309.618,-72.37
1309.632,-67.68
1309.647,-67.07
1309.662,-68.22
1309.677,-70.6
1309.693,-68.98
1309.708,-65.09
1309.723,-66.35
1309.738,-72.98
1309.753,-66.34
1309.768,-65.63
1309.782,-66.15
1309.797,-68.22
1309.813,-67.28
1309.828,-66.15
1309.843,-66.64
1309.858,-69.18
1309.873,-67.76
1309.888,-65.4
1309.903,-65.81
1309.917,-71.0
1309.932,-65.9
1309.948,-64.57
1309.963,-64.34
1309.978,-65.36
1309.993,-69.2
1310.008,-65.77
1310.023,-64.56
1310.038,-67.59
1310.053,-70.3
1310.068,-64.83
1310.083,-65.1
1310.098,-68.08
1310.113,-66.22
1310.128,-66.15
1310.143,-63.82
1310.158,-64.33
1310.173,-67.36
1310.188,-64.22
1310.203,-62.72
1310.218,-64.15
1310.233,-65.18
1310.248,-62.42
1310.263,-62.4
1310.278,-63.41
1310.293,-64.53
1310.308,-65.7
1310.323,-63.15
1310.338,-63.41
1310.353,-65.25
1310.368,-64.06
1310.383,-62.73
1310.398,-63.65
1310.413,-65.22
1310.428,-63.2
1310.443,-62.12
1310.458,-62.37
1310.473,-63.04
1310.488,-64.63
1310.503,-63.21
1310.518,-62.58
1310.533,-64.07
1310.548,-63.66
1310.563,-62.07
1310.578,-62.56
1310.593,-63.51
1310.608,-64.15
1310.623,-63.24
1310.638,-63.71
1310.653,-64.23
1310.668,-66.49
1310.683,-63.79
1310.698,-63.73
1310.713,-66.76
1310.728,-66.23
1310.743,-63.67
1310.758,-64.67
1310.773,-67.22
1310.788,-66.86
1310.803,-65.81
1310.818,-66.29
1310.833,-68.93
1310.848,-72.96
1310.863,-66.24
1310.878,-65.6
1310.893,-69.97
1310.908,-70.01
1310.923,-64.88
1310.938,-66.7
1310.953,-71.48
1310.968,-71.91
1310.983,-68.9
1310.998,-68.48
1311.013,-69.76
1311.028,-210.0
1311.043,-69.98
1311.058,-66.98
1311.073,-76.88
1311.088,-210.0
1311.103,-68.11
1311.118,-71.08
1311.133,-210.0
1311.148,-75.4
1311.163,-72.8
1311.178,-69.77
1311.193,-71.41
1311.208,-210.0
1311.223,-78.67
1311.238,-68.93
1311.253,-210.0
1311.268,-210.0
1311.283,-210.0
1311.298,-210.0
1311.313,-210.0
1311.328,-210.0
1311.343,-210.0
1311.358,-210.0
1311.373,-210.0
1311.388,-210.0
1311.403,-210.0
1311.418,-70.87
1311.433,-210.0
1311.448,-210.0
1311.463,-210.0
1311.478,-74.68
1311.493,-78.22
1311.508,-210.0
1311.523,-210.0
1311.538,-69.38
1311.553,-68.65
1311.568,-210.0
1311.583,-210.0
1311.598,-69.47
1311.613,-70.13
1311.628,-210.0
1311.643,-77.13
1311.658,-71.51
1311.673,-68.55
1311.688,-81.44
1311.703,-210.0
1311.718,-68.9
1311.733,-66.9
1311.748,-71.83
1311.763,-210.0
1311.778,-67.99
1311.793,-67.72
1311.808,-75.83
1311.823,-70.71
1311.838,-66.13
1311.853,-65.22
1311.868,-68.02
1311.883,-67.78
1311.898,-64.52
1311.913,-63.23
1311.928,-65.35
1311.943,-66.74
1311.958,-63.96
1311.973,-64.11
1311.988,-68.21
1312.003,-65.86
1312.018,-64.73
1312.033,-64.18
1312.048,-66.6
1312.063,-66.16
1312.078,-64.48
1312.093,-63.39
1312.108,-64.91
1312.123,-66.28
1312.138,-63.71
1312.153,-63.68
1312.168,-66.87
1312.183,-66.13
1312.198,-64.56
1312.213,-63.8
1312.228,-66.67
1312.243,-66.93
1312.258,-65.19
1312.273,-63.94
1312.288,-66.05
1312.303,-67.4
1312.318,-64.24
1312.333,-64.04
1312.348,-67.21
1312.363,-66.7
1312.378,-64.89
1312.393,-63.5
1312.408,-65.86
1312.423,-66.14
1312.438,-64.59
1312.453,-63.07
1312.468,-63.99
1312.483,-66.0
1312.498,-64.12
1312.513,-63.23
1312.528,-65.28
1312.543,-66.51
1312.558,-66.28
1312.573,-64.15
1312.588,-64.95
1312.603,-66.17
1312.618,-66.31
1312.633,-64.4
1312.648,-64.34
1312.663,-67.17
1312.678,-66.67
1312.693,-64.15
1312.708,-65.12
1312.723,-66.82
1312.738,-66.34
1312.753,-65.36
1312.768,-64.71
1312.783,-65.82
1312.798,-65.1
1312.813,-64.59
1312.828,-65.38
1312.843,-66.23
1312.858,-66.71
1312.873,-64.32
1312.888,-65.53
1312.903,-68.52
1312.918,-70.05
1312.933,-67.12
1312.948,-68.03
1312.963,-67.97
1312.978,-67.46
1312.993,-65.52
1313.008,-67.53
1313.023,-68.2
1313.038,-65.81
1313.053,-64.64
1313.068,-64.73
1313.083,-67.35
1313.098,-69.3
1313.113,-67.47
1313.128,-65.05
1313.143,-67.62
1313.158,-69.07
1313.173,-65.11
1313.188,-65.41
1313.203,-68.57
1313.218,-67.45
1313.233,-65.01
1313.248,-67.45
1313.263,-68.34
1313.278,-67.82
1313.293,-66.35
1313.308,-64.43
1313.323,-66.78
1313.338,-68.88
1313.353,-65.02
1313.368,-64.59
1313.383,-66.72
1313.398,-67.2
1313.413,-64.58
1313.428,-65.62
1313.443,-66.44
1313.458,-66.02
1313.473,-65.57
1313.488,-65.6
1313.503,-67.02
1313.518,-69.79
1313.533,-65.76
1313.548,-65.04
1313.563,-67.01
1313.578,-67.75
1313.593,-65.52
1313.608,-66.08
1313.623,-68.29
1313.638,-66.26
1313.653,-66.5
1313.668,-66.6
1313.683,-66.6
1313.698,-68.48
1313.713,-66.64
1313.728,-65.16
1313.743,-67.82
1313.758,-67.96
1313.773,-65.85
1313.788,-65.92
1313.803,-68.83
1313.818,-67.9
1313.833,-64.91
1313.848,-66.79
1313.863,-68.48
1313.878,-71.36
1313.893,-67.91
1313.908,-65.64
1313.923,-71.26
1313.938,-73.03
1313.953,-66.65
1313.968,-67.34
1313.983,-73.05
1313.998,-70.9
1314.013,-66.37
1314.028,-69.23
1314.043,-210.0
1314.058,-210.0
1314.073,-210.0
1314.088,-70.76
1314.103,-77.05
1314.118,-210.0
1314.133,-80.51
1314.148,-72.07
1314.163,-210.0
1314.178,-210.0
1314.193,-72.42
1314.208,-73.96
1314.223,-210.0
1314.238,-210.0
1314.253,-72.63
1314.268,-68.53
1314.283,-78.17
1314.298,-210.0
1314.313,-210.0
1314.328,-74.01
1314.343,-210.0
1314.358,-210.0
1314.373,-79.95
1314.388,-69.56
1314.403,-81.6
1314.418,-210.0
1314.433,-79.12
1314.448,-69.63
1314.463,-210.0
1314.478,-210.0
1314.493,-210.0
1314.508,-81.21
1314.523,-210.0
1314.538,-210.0
1314.553,-210.0
1314.568,-210.0
1314.583,-210.0
1314.598,-210.0
1314.613,-210.0
1314.628,-70.11
1314.643,-210.0
1314.658,-210.0
1314.673,-81.51
1314.688,-71.41
1314.703,-210.0
1314.718,-210.0
1314.733,-77.93
1314.748,-70.65
1314.763,-210.0
1314.778,-210.0
1314.793,-73.8
1314.808,-68.4
1314.823,-210.0
1314.838,-210.0
1314.853,-74.61
1314.868,-68.21
1314.883,-70.94
1314.898,-71.17
1314.913,-69.98
1314.928,-66.52
1314.943,-71.25
1314.958,-70.74
1314.973,-69.1
1314.988,-68.88
1315.003,-71.54
1315.018,-210.0
1315.033,-69.54
1315.048,-67.0
1315.063,-71.53
1315.078,-70.97
1315.093,-69.47
1315.108,-68.32
1315.123,-69.95
1315.138,-70.64
1315.153,-70.11
1315.168,-69.76
1315.183,-75.42
1315.198,-71.48
1315.213,-69.91
1315.228,-66.97
1315.243,-67.03
1315.258,-68.68
1315.273,-68.13
1315.288,-66.93
1315.303,-67.79
1315.318,-68.23
1315.333,-67.32
1315.348,-66.2
1315.363,-70.68
1315.378,-69.09
1315.393,-72.27
1315.408,-210.0
1315.423,-70.5
1315.438,-69.11
1315.453,-69.66
1315.468,-65.7
1315.483,-67.92
1315.498,-69.13
1315.513,-67.33
1315.528,-64.48
1315.543,-66.21
1315.558,-68.14
1315.573,-65.62
1315.588,-65.81
1315.603,-66.05
1315.618,-65.3
1315.633,-66.19
1315.648,-66.38
1315.663,-65.66
1315.678,-69.1
1315.693,-68.74
1315.708,-64.61
1315.723,-64.81
1315.738,-68.26
1315.753,-67.54
1315.768,-64.95
1315.783,-68.0
1315.798,-69.84
1315.813,-69.11
1315.828,-66.54
1315.843,-67.67
1315.858,-68.07
1315.873,-69.92
1315.888,-65.13
1315.903,-66.8
1315.918,-72.12
1315.933,-69.89
1315.948,-65.62
1315.963,-67.99
1315.978,-69.64
1315.993,-66.32
1316.008,-66.47
1316.023,-67.12
1316.038,-67.92
1316.053,-66.87
1316.068,-65.32
1316.083,-66.46
1316.098,-73.57
1316.113,-69.51
1316.128,-65.46
1316.143,-68.0
1316.158,-69.19
1316.173,-65.46
1316.188,-64.47
1316.203,-69.03
1316.218,-67.38
1316.233,-66.81
1316.248,-66.76
1316.263,-67.91
1316.278,-67.37
1316.293,-66.92
1316.308,-64.3
1316.323,-66.16
1316.338,-71.73
1316.353,-68.32
1316.368,-64.47
1316.383,-67.2
1316.398,-69.13
1316.413,-64.66
1316.428,-63.83
1316.443,-66.18
1316.458,-66.46
1316.473,-66.54
1316.488,-65.7
1316.503,-66.18
1316.518,-66.22
1316.533,-68.17
1316.548,-65.7
1316.563,-66.92
1316.578,-69.24
1316.593,-67.71
1316.608,-64.61
1316.623,-66.53
1316.638,-68.42
1316.653,-65.18
1316.668,-66.56
1316.683,-66.16
1316.698,-65.24
1316.713,-65.66
1316.728,-67.67
1316.743,-65.69
1316.758,-64.4
1316.773,-65.09
1316.788,-65.39
1316.803,-65.02
1316.818,-66.45
1316.833,-65.58
1316.848,-64.72
1316.863,-66.69
1316.878,-65.11
1316.893,-65.75
1316.908,-65.96
1316.923,-65.06
1316.938,-65.05
1316.953,-65.92
1316.968,-66.5
1316.983,-65.94
1316.998,-66.53
1317.013,-67.52
1317.028,-65.93
1317.043,-64.77
1317.058,-65.16
1317.073,-65.73
1317.088,-65.23
1317.103,-64.6
1317.118,-63.71
1317.133,-64.16
1317.148,-64.65
1317.163,-64.02
1317.178,-64.03
1317.193,-65.38
1317.208,-65.68
1317.224,-64.33
1317.238,-64.8
1317.253,-65.92
1317.268,-64.62
1317.283,-64.39
1317.298,-64.84
1317.313,-69.8
1317.328,-68.06
1317.344,-63.95
1317.359,-63.5
1317.373,-63.91
1317.388,-64.03
1317.403,-63.36
1317.418,-63.17
1317.433,-64.51
1317.448,-64.72
1317.464,-63.93
1317.479,-64.73
1317.494,-65.08
1317.509,-64.72
1317.523,-63.78
1317.538,-64.21
1317.553,-66.64
1317.568,-64.88
1317.583,-63.51
1317.599,-64.26
1317.614,-64.99
1317.629,-66.98
1317.644,-65.06
1317.658,-64.74
1317.673,-64.98
1317.688,-64.95
1317.703,-64.29
1317.719,-64.59
1317.734,-65.09
1317.749,-64.6
1317.764,-64.15
1317.779,-64.25
1317.794,-64.8
1317.808,-64.56
1317.823,-64.37
1317.839,-64.37
1317.854,-64.33
1317.869,-63.98
1317.884,-64.69
1317.899,-65.11
1317.914,-65.04
1317.929,-65.52
1317.944,-64.86
1317.958,-64.43
1317.974,-64.29
1317.989,-64.39
1318.004,-64.09
1318.019,-64.19
1318.034,-63.21
1318.049,-64.44
1318.064,-65.49
1318.079,-64.16
1318.094,-64.07
1318.109,-64.21
1318.124,-64.34
1318.139,-64.81
1318.154,-64.49
1318.169,-65.42
1318.184,-65.63
1318.199,-65.51
1318.214,-64.15
1318.229,-64.43
1318.244,-64.64
1318.259,-63.41
1318.274,-62.89
1318.289,-63.72
1318.304,-63.7
1318.319,-62.11
1318.334,-62.2
1318.349,-63.18
1318.364,-63.4
1318.379,-64.2
1318.394,-64.6
1318.409,-64.22
1318.424,-63.68
1318.439,-63.71
1318.454,-63.53
1318.469,-65.12
1318.484,-65.47
1318.499,-64.42
1318.514,-63.54
1318.529,-65.44
1318.544,-65.45
1318.559,-63.56
1318.574,-64.08
1318.589,-65.18
1318.604,-63.87
1318.619,-64.36
1318.634,-64.53
1318.649,-64.19
1318.664,-64.25
1318.679,-64.4
1318.694,-64.26
1318.709,-64.17
1318.724,-64.86
1318.739,-63.32
1318.754,-63.01
1318.769,-64.83
1318.784,-65.76
1318.799,-64.22
1318.814,-65.11
1318.829,-64.61
1318.844,-64.31
1318.859,-64.91
1318.874,-65.95
1318.889,-64.2
1318.904,-64.14
1318.919,-64.5
1318.934,-64.0
1318.949,-63.27
1318.964,-64.18
1318.979,-65.26
1318.994,-63.92
1319.009,-64.97
1319.024,-63.55
1319.039,-64.21
1319.054,-65.04
1319.069,-64.11
1319.084,-64.17
1319.099,-65.37
1319.114,-64.98
1319.129,-64.59
1319.144,-64.9
1319.159,-65.6
1319.174,-64.33
1319.189,-63.97
1319.204,-64.52
1319.219,-64.75
1319.234,-63.83
1319.249,-63.88
1319.264,-64.94
1319.279,-65.36
1319.294,-65.9
1319.309,-65.12
1319.324,-66.17
1319.339,-67.33
1319.354,-66.34
1319.369,-65.96
1319.384,-68.04
1319.399,-68.79
1319.414,-66.12
1319.429,-67.08
1319.444,-69.85
1319.459,-70.04
1319.474,-65.33
1319.489,-64.57
1319.504,-66.1
1319.519,-66.72
1319.534,-64.5
1319.549,-64.34
1319.564,-65.07
1319.579,-66.09
1319.594,-64.9
1319.609,-64.99
1319.624,-66.32
1319.639,-65.42
1319.654,-64.12
1319.669,-64.55
1319.684,-67.12
1319.699,-65.82
1319.714,-64.85
1319.729,-65.11
1319.744,-68.16
1319.759,-68.44
1319.774,-64.59
1319.789,-66.53
1319.804,-73.91
1319.819,-66.29
1319.834,-65.12
1319.849,-64.84
1319.864,-66.22
1319.879,-65.35
1319.894,-64.69
1319.909,-65.27
1319.924,-66.89
1319.939,-65.9
1319.954,-65.95
1319.969,-67.54
1319.984,-67.07
1319.999,-66.73
1320.014,-64.68
1320.029,-68.16
1320.044,-76.56
1320.059,-65.63
1320.074,-65.82
1320.089,-72.68
1320.104,-79.36
1320.119,-68.92
1320.134,-66.96
1320.149,-70.01
1320.164,-71.0
1320.179,-66.88
1320.194,-67.4
1320.209,-68.79
1320.224,-68.21
1320.239,-67.74
1320.254,-70.27
1320.269,-210.0
1320.284,-210.0
1320.299,-69.52
1320.314,-69.24
1320.329,-210.0
1320.344,-72.73
1320.359,-67.11
1320.374,-71.16
1320.389,-71.74
1320.404,-70.52
1320.419,-69.09
1320.434,-70.6
1320.449,-76.66
1320.464,-71.28
1320.479,-69.34
1320.494,-71.46
1320.509,-76.01
1320.524,-70.08
1320.539,-70.66
1320.554,-75.13
1320.569,-210.0
1320.584,-75.82
1320.599,-70.8
1320.614,-210.0
1320.629,-210.0
1320.644,-71.01
1320.659,-72.67
1320.674,-210.0
1320.689,-210.0
1320.704,-70.48
1320.719,-70.0
1320.734,-69.63
1320.749,-69.95
1320.764,-68.53
1320.779,-71.14
1320.794,-69.91
1320.809,-67.88
1320.824,-67.03
1320.839,-66.21
1320.854,-74.21
1320.869,-210.0
1320.884,-67.61
1320.899,-68.1
1320.914,-210.0
1320.929,-69.78
1320.944,-66.91
1320.959,-70.84
1320.974,-74.71
1320.989,-66.9
1321.004,-66.11
1321.019,-73.3
1321.034,-71.55
1321.049,-65.37
1321.064,-67.56
1321.079,-74.76
1321.094,-70.87
1321.109,-67.45
1321.124,-64.78
1321.139,-67.59
1321.154,-69.04
1321.169,-65.13
1321.184,-65.31
1321.199,-68.85
1321.214,-69.02
1321.229,-66.05
1321.244,-66.19
1321.259,-72.83
1321.274,-66.69
1321.289,-64.31
1321.304,-65.91
1321.319,-70.08
1321.334,-66.09
1321.349,-65.3
1321.364,-71.93
1321.379,-68.6
1321.394,-66.4
1321.409,-64.6
1321.424,-65.83
1321.439,-66.28
1321.454,-64.49
1321.469,-63.13
1321.484,-64.2
1321.499,-66.03
1321.514,-63.77
1321.529,-63.55
1321.544,-66.2
1321.559,-66.5
1321.574,-63.66
1321.589,-64.56
1321.604,-67.21
1321.619,-65.34
1321.634,-63.95
1321.649,-64.72
1321.664,-66.53
1321.679,-63.36
1321.694,-62.98
1321.709,-64.85
1321.724,-65.47
1321.739,-65.57
1321.754,-64.22
1321.769,-64.01
1321.784,-66.27
1321.799,-65.54
1321.814,-63.59
1321.829,-64.83
1321.844,-67.28
1321.859,-65.23
1321.874,-63.76
1321.889,-67.11
1321.904,-68.44
1321.919,-64.47
1321.934,-64.94
1321.949,-68.59
1321.964,-66.07
1321.979,-63.98
1321.994,-65.43
1322.009,-68.07
1322.024,-64.72
1322.039,-63.63
1322.054,-64.14
1322.069,-65.28
1322.084,-64.74
1322.099,-63.11
1322.114,-62.41
1322.129,-65.0
1322.144,-64.61
1322.159,-63.17
1322.174,-63.7
1322.189,-65.71
1322.204,-63.82
1322.219,-63.13
1322.234,-64.42
1322.249,-66.25
1322.264,-63.06
1322.279,-62.9
1322.294,-64.61
1322.309,-64.76
1322.324,-64.23
1322.339,-63.66
1322.354,-64.23
1322.369,-63.93
1322.384,-64.21
1322.399,-64.42
1322.414,-64.36
1322.429,-65.02
1322.444,-64.51
1322.459,-64.54
1322.474,-67.02
1322.489,-68.52
1322.504,-65.09
1322.519,-65.52
1322.534,-67.98
1322.549,-65.81
1322.564,-63.97
1322.579,-65.86
1322.594,-66.85
1322.609,-66.38
1322.624,-65.26
1322.639,-64.96
1322.654,-67.19
1322.669,-66.44
1322.684,-65.87
1322.699,-66.81
1322.714,-66.23
1322.729,-65.95
1322.744,-65.95
1322.759,-67.85
1322.774,-77.0
1322.789,-67.04
1322.804,-66.49
1322.819,-70.23
1322.834,-76.46
1322.849,-67.81
1322.864,-67.62
1322.879,-76.16
1322.894,-67.86
1322.909,-65.37
1322.924,-66.1
1322.939,-69.55
1322.954,-66.04
1322.969,-65.15
1322.984,-68.3
1322.999,-68.31
1323.014,-68.91
1323.029,-69.25
1323.044,-68.71
1323.059,-210.0
1323.074,-210.0
1323.089,-69.73
1323.104,-69.83
1323.119,-210.0
1323.134,-81.69
1323.149,-69.3
1323.164,-210.0
1323.179,-210.0
1323.194,-74.68
1323.209,-73.88
1323.224,-210.0
1323.239,-210.0
1323.254,-69.76
1323.269,-72.28
1323.284,-210.0
1323.299,-210.0
1323.314,-73.97
1323.329,-68.5
1323.344,-210.0
1323.359,-210.0
1323.374,-210.0
1323.389,-68.35
1323.404,-73.79
1323.419,-210.0
1323.434,-71.37
1323.449,-69.67
1323.464,-210.0
1323.479,-210.0
1323.494,-68.07
1323.509,-68.86
1323.524,-210.0
1323.539,-74.88
1323.554,-67.13
1323.569,-69.51
1323.584,-74.76
1323.599,-68.3
1323.614,-65.52
1323.629,-67.75
1323.644,-76.44
1323.659,-67.37
1323.674,-65.44
1323.689,-70.37
1323.704,-71.98
1323.719,-66.25
1323.734,-66.86
1323.749,-70.06
1323.764,-210.0
1323.779,-69.31
1323.794,-67.37
1323.809,-70.08
1323.824,-78.57
1323.839,-66.35
1323.854,-65.79
1323.869,-68.96
1323.884,-68.48
1323.899,-65.42
1323.914,-66.04
1323.929,-70.07
1323.944,-66.78
1323.959,-64.93
1323.974,-66.65
1323.989,-67.92
1324.004,-66.35
1324.019,-64.32
1324.034,-66.01
1324.049,-67.84
1324.064,-65.58
1324.079,-64.06
1324.094,-66.1
1324.109,-65.96
1324.124,-63.99
1324.139,-62.99
1324.154,-64.22
1324.169,-64.98
1324.184,-62.88
1324.199,-62.88
1324.214,-64.86
1324.229,-64.91
1324.244,-62.76
1324.259,-63.63
1324.274,-65.02
1324.289,-64.64
1324.304,-62.93
1324.319,-63.98
1324.334,-65.49
1324.349,-63.45
1324.364,-63.44
1324.379,-63.65
1324.394,-65.5
1324.409,-64.21
1324.424,-63.24
1324.439,-65.36
1324.454,-65.1
1324.469,-63.51
1324.484,-63.09
1324.499,-64.75
1324.514,-67.38
1324.529,-64.44
1324.544,-63.61
1324.559,-65.94
1324.574,-67.87
1324.589,-64.69
1324.604,-64.81
1324.619,-68.12
1324.634,-65.92
1324.649,-63.79
1324.664,-66.25
1324.679,-69.28
1324.694,-64.06
1324.709,-63.76
1324.724,-67.93
1324.739,-66.18
1324.754,-65.62
1324.769,-63.54
1324.784,-64.38
1324.799,-65.33
1324.814,-64.53
1324.829,-63.36
1324.844,-65.41
1324.859,-65.76
1324.874,-64.57
1324.889,-63.15
1324.904,-64.87
1324.919,-66.5
1324.934,-64.52
1324.949,-64.1
1324.964,-66.77
1324.979,-67.26
1324.994,-64.34
1325.009,-65.26
1325.024,-68.99
1325.039,-65.38
1325.054,-63.83
1325.069,-65.39
1325.084,-67.22
1325.099,-64.17
1325.114,-64.33
1325.129,-67.27
1325.144,-69.39
1325.159,-67.28
1325.174,-65.45
1325.189,-67.59
1325.204,-68.03
1325.219,-65.6
1325.234,-66.65
1325.25,-68.45
1325.264,-67.43
1325.279,-65.47
1325.294,-64.41
1325.309,-66.75
1325.324,-66.83
1325.339,-64.39
1325.354,-64.47
1325.37,-67.31
1325.385,-64.7
1325.4,-62.95
1325.414,-64.02
1325.429,-65.37
1325.444,-62.83
1325.459,-62.71
1325.474,-65.12
1325.49,-64.86
1325.505,-63.74
1325.52,-63.41
1325.535,-65.28
1325.549,-64.57
1325.564,-63.91
1325.579,-64.29
1325.594,-65.21
1325.609,-64.81
1325.625,-63.23
1325.64,-64.33
1325.655,-64.56
1325.67,-63.55
1325.685,-62.85
1325.699,-64.77
1325.714,-64.3
1325.729,-63.04
1325.745,-62.5
1325.76,-63.13
1325.775,-64.51
1325.79,-62.81
1325.805,-62.24
1325.82,-63.47
1325.834,-63.92
1325.849,-62.22
1325.865,-62.91
1325.88,-64.52
1325.895,-64.58
1325.91,-63.57
1325.925,-63.28
1325.94,-64.23
1325.955,-64.16
1325.97,-63.34
1325.984,-63.99
1326.0,-64.01
1326.015,-63.73
1326.03,-63.44
1326.045,-63.91
1326.06,-63.88
1326.075,-63.66
1326.09,-64.31
1326.105,-64.69
1326.12,-64.9
1326.135,-64.56
1326.15,-64.98
1326.165,-65.04
1326.18,-64.56
1326.195,-64.71
1326.21,-66.02
1326.225,-65.51
1326.24,-63.69
1326.255,-64.91
1326.27,-64.52
1326.285,-64.24
1326.3,-64.82
1326.315,-66.01
1326.33,-64.41
1326.345,-64.77
1326.36,-65.08
1326.375,-64.21
1326.39,-65.93
1326.405,-66.23
1326.42,-65.33
1326.435,-65.3
1326.45,-66.23
1326.465,-66.33
1326.48,-64.79
1326.495,-67.03
1326.51,-68.32
1326.525,-65.79
1326.54,-64.33
1326.555,-67.54
1326.57,-66.91
1326.585,-64.7
1326.6,-64.91
1326.615,-65.92
1326.63,-65.17
1326.645,-63.89
1326.66,-66.87
1326.675,-66.47
1326.69,-65.55
1326.705,-64.96
1326.72,-67.02
1326.735,-65.64
1326.75,-67.38
1326.765,-69.53
1326.78,-67.21
1326.795,-66.63
1326.81,-68.66
1326.825,-71.83
1326.84,-67.47
1326.855,-68.16
1326.87,-71.55
1326.885,-68.05
1326.9,-66.99
1326.915,-67.27
1326.93,-70.46
1326.945,-67.08
1326.96,-70.64
1326.975,-68.01
1326.99,-65.78
1327.005,-69.69
1327.02,-69.79
1327.035,-65.98
1327.05,-66.38
1327.065,-72.55
1327.08,-69.66
1327.095,-66.76
1327.11,-69.67
1327.125,-71.89
1327.14,-67.23
1327.155,-66.66
1327.17,-68.65
1327.185,-69.9
1327.2,-66.62
1327.215,-67.24
1327.23,-69.2
1327.245,-68.95
1327.26,-66.32
1327.275,-70.38
1327.29,-71.47
1327.305,-73.16
1327.32,-68.98
1327.335,-72.54
1327.35,-68.28
1327.365,-70.24
1327.38,-77.99
1327.395,-69.87
1327.41,-68.68
1327.425,-77.43
1327.44,-210.0
1327.455,-70.45
1327.47,-69.18
1327.485,-210.0
1327.5,-70.25
1327.515,-66.41
1327.53,-68.39
1327.545,-71.95
1327.56,-65.91
1327.575,-67.73
1327.59,-67.54
1327.605,-66.46
1327.62,-67.17
1327.635,-68.95
1327.65,-69.25
1327.665,-66.0
1327.68,-66.57
1327.695,-67.35
1327.71,-66.01
1327.725,-66.8
1327.74,-72.23
1327.755,-68.49
1327.77,-66.05
1327.785,-68.01
1327.8,-68.66
1327.815,-66.27
1327.83,-64.58
1327.845,-66.17
1327.86,-66.91
1327.875,-65.35
1327.89,-65.31
1327.905,-66.73
1327.92,-66.77
1327.935,-64.95
1327.95,-67.18
1327.965,-64.97
1327.98,-65.2
1327.995,-65.9
1328.01,-65.93
1328.025,-65.68
1328.04,-66.35
1328.055,-67.12
1328.07,-65.25
1328.085,-64.82
1328.1,-65.13
1328.115,-65.21
1328.13,-64.36
1328.145,-63.73
1328.16,-63.93
1328.175,-64.81
1328.19,-65.69
1328.205,-66.25
1328.22,-64.25
1328.235,-63.66
1328.25,-66.44
1328.265,-66.04
1328.28,-63.94
1328.295,-64.75
1328.31,-66.06
1328.325,-64.82
1328.34,-63.44
1328.355,-66.08
1328.37,-66.52
1328.385,-64.73
1328.4,-64.65
1328.415,-66.85
1328.43,-65.42
1328.445,-63.08
1328.46,-63.91
1328.475,-67.11
1328.49,-64.97
1328.505,-63.2
1328.52,-64.06
1328.535,-66.63
1328.55,-63.94
1328.565,-64.15
1328.58,-64.29
1328.595,-64.65
1328.61,-64.14
1328.625,-63.21
1328.64,-64.96
1328.655,-65.29
1328.67,-64.4
1328.685,-64.33
1328.7,-65.54
1328.715,-65.37
1328.73,-63.94
1328.745,-63.07
1328.76,-63.96
1328.775,-63.97
1328.79,-62.93
1328.805,-62.69
1328.82,-64.95
1328.835,-64.56
1328.85,-63.19
1328.865,-63.66
1328.88,-65.67
1328.895,-64.23
1328.91,-62.99
1328.925,-64.75
1328.94,-65.61
1328.955,-63.01
1328.97,-63.34
1328.985,-65.0
1329.0,-64.8
1329.015,-62.71
1329.03,-63.17
1329.045,-64.91
1329.06,-63.13
1329.075,-62.41
1329.09,-64.38
1329.105,-64.64
1329.12,-62.77
1329.135,-63.18
1329.15,-66.47
1329.165,-65.83
1329.18,-63.7
1329.195,-63.66
1329.21,-64.65
1329.225,-64.34
1329.24,-64.95
1329.255,-64.96
1329.27,-64.97
1329.285,-64.66
1329.3,-64.67
1329.315,-64.91
1329.33,-64.08
1329.345,-64.69
1329.36,-64.37
1329.375,-64.21
1329.39,-63.59
1329.405,-62.93
1329.42,-62.13
1329.435,-63.64
1329.45,-64.21
1329.465,-63.38
1329.48,-63.0
1329.495,-63.51
1329.51,-63.71
1329.525,-63.6
1329.54,-63.41
1329.555,-64.04
1329.57,-63.9
1329.585,-63.25
1329.6,-64.45
1329.615,-65.24
1329.63,-65.39
1329.645,-64.57
1329.66,-64.84
1329.675,-64.66
1329.69,-64.51
1329.705,-64.84
1329.72,-65.23
1329.735,-65.03
1329.75,-65.43
1329.765,-66.29
1329.78,-66.73
1329.795,-65.74
1329.81,-68.61
1329.825,-65.82
1329.84,-64.64
1329.855,-65.59
1329.87,-67.49
1329.885,-64.82
1329.9,-64.55
1329.915,-66.57
1329.93,-66.68
1329.945,-63.79
1329.96,-64.31
1329.975,-65.58
1329.99,-64.52
1330.005,-64.14
1330.02,-65.36
1330.035,-66.97
1330.05,-64.5
1330.065,-64.53
1330.08,-67.75
1330.095,-65.71
1330.11,-64.95
1330.125,-65.59
1330.14,-67.69
1330.155,-64.7
1330.17,-64.14
1330.185,-65.41
1330.2,-66.18
1330.215,-63.56
1330.23,-63.91
1330.245,-65.27
1330.26,-63.97
1330.275,-62.55
1330.29,-63.7
1330.305,-64.87
1330.32,-63.14
1330.335,-62.89
1330.35,-64.11
1330.365,-65.04
1330.38,-63.43
1330.395,-63.16
1330.41,-64.23
1330.425,-66.67
1330.44,-63.95
1330.455,-64.25
1330.47,-66.86
1330.485,-66.01
1330.5,-63.95
1330.515,-64.86
1330.53,-69.75
1330.545,-65.93
1330.56,-64.35
1330.575,-66.3
1330.59,-67.7
1330.605,-64.78
1330.62,-64.34
1330.635,-64.3
1330.65,-64.96
1330.665,-64.04
1330.68,-63.96
1330.695,-64.73
1330.71,-64.24
1330.725,-63.63
1330.74,-63.71
1330.755,-64.82
1330.77,-63.82
1330.785,-63.16
1330.8,-64.06
1330.815,-64.22
1330.83,-63.56
1330.845,-63.95
1330.86,-65.32
1330.875,-64.72
1330.89,-63.47
1330.905,-64.12
1330.92,-64.83
1330.935,-63.76
1330.95,-63.41
1330.965,-64.96
1330.98,-65.17
1330.995,-64.05
1331.01,-63.72
1331.025,-64.55
1331.04,-64.08
1331.055,-63.04
1331.07,-64.17
1331.085,-64.56
1331.1,-63.76
1331.115,-63.3
1331.13,-64.34
1331.145,-64.22
1331.16,-63.19
1331.175,-63.51
1331.19,-64.63
1331.205,-63.41
1331.22,-63.18
1331.235,-63.75
1331.25,-62.76
1331.265,-62.88
1331.28,-64.09
1331.295,-63.44
1331.31,-62.67
1331.325,-63.46
1331.34,-63.81
1331.355,-63.35
1331.37,-63.12
1331.385,-63.36
1331.4,-64.14
1331.415,-64.06
1331.43,-64.03
1331.445,-64.25
1331.46,-63.62
1331.475,-62.92
1331.49,-63.2
1331.505,-62.92
1331.52,-62.56
1331.535,-62.6
1331.55,-62.51
1331.565,-62.43
1331.58,-62.36
1331.595,-62.81
1331.61,-62.85
1331.625,-62.62
1331.64,-64.37
1331.655,-63.82
1331.67,-62.89
1331.685,-63.2
1331.7,-64.48
1331.715,-63.27
1331.73,-62.65
1331.745,-63.86
1331.76,-64.23
1331.775,-62.83
1331.79,-62.87
1331.805,-63.24
1331.82,-63.17
1331.835,-62.69
1331.85,-62.86
1331.865,-63.67
1331.88,-63.02
1331.895,-63.09
1331.91,-63.48
1331.925,-64.2
1331.94,-62.76
1331.955,-62.95
1331.97,-63.49
1331.985,-63.46
1332.0,-63.26
1332.015,-63.6
1332.03,-65.15
1332.045,-63.96
1332.06,-64.13
1332.075,-64.26
1332.09,-64.36
1332.105,-63.25
1332.12,-63.28
1332.135,-64.64
1332.15,-63.49
1332.165,-63.45
1332.18,-63.64
1332.195,-64.23
1332.21,-63.6
1332.225,-63.59
1332.24,-63.69
1332.255,-66.94
1332.27,-64.85
1332.285,-63.92
1332.3,-66.32
1332.315,-67.08
1332.33,-63.9
1332.345,-64.44
1332.36,-69.49
1332.375,-64.81
1332.39,-64.24
1332.405,-63.84
1332.42,-65.18
1332.435,-64.6
1332.45,-63.7
1332.465,-63.82
1332.48,-64.55
1332.495,-64.19
1332.51,-64.39
1332.525,-65.28
1332.54,-65.29
1332.555,-64.77
1332.57,-65.16
1332.585,-64.7
1332.6,-65.17
1332.615,-64.93
1332.63,-65.03
1332.645,-64.58
1332.66,-64.76
1332.675,-64.8
1332.69,-65.04
1332.705,-64.94
1332.72,-65.29
1332.735,-64.59
1332.75,-65.42
1332.765,-64.51
1332.78,-64.82
1332.795,-65.18
1332.81,-66.61
1332.825,-66.95
1332.84,-65.36
1332.855,-66.05
1332.87,-67.04
1332.885,-65.83
1332.9,-66.36
1332.915,-67.91
1332.93,-67.16
1332.945,-66.04
1332.96,-67.39
1332.975,-69.02
1332.99,-67.71
1333.005,-65.72
1333.02,-67.31
1333.035,-66.4
1333.05,-65.57
1333.065,-65.17
1333.08,-66.23
1333.095,-66.15
1333.11,-66.22
1333.125,-67.3
1333.141,-66.82
1333.155,-67.08
1333.17,-65.53
1333.185,-67.1
1333.2,-66.87
1333.215,-66.35
1333.23,-65.86
1333.245,-67.57
1333.26,-65.91
1333.276,-65.02
1333.29,-65.14
1333.305,-65.39
1333.32,-64.6
1333.335,-64.49
1333.35,-65.07
1333.365,-64.8
1333.38,-64.82
1333.396,-64.37
1333.411,-66.67
1333.426,-67.7
1333.44,-64.61
1333.455,-65.0
1333.47,-68.26
1333.485,-68.31
1333.5,-66.09
1333.516,-66.59
1333.531,-75.5
1333.546,-69.59
1333.561,-66.49
1333.575,-67.53
1333.59,-210.0
1333.605,-68.27
1333.62,-66.06
1333.635,-68.51
1333.651,-71.12
1333.666,-65.6
1333.681,-65.61
1333.696,-69.86
1333.711,-67.97
1333.725,-64.98
1333.74,-68.52
1333.755,-75.33
1333.771,-68.28
1333.786,-66.41
1333.801,-68.43
1333.816,-80.47
1333.831,-66.35
1333.846,-66.82
1333.86,-74.43
1333.875,-69.66
1333.891,-66.2
1333.906,-67.22
1333.921,-74.4
1333.936,-66.59
1333.951,-65.64
1333.966,-68.61
1333.981,-68.23
1333.996,-65.21
1334.01,-67.22
1334.026,-75.07
1334.041,-68.39
1334.056,-66.25
1334.071,-68.88
1334.086,-210.0
1334.101,-69.56
1334.116,-68.94
1334.131,-85.26
1334.146,-210.0
1334.161,-67.27
1334.176,-71.41
1334.191,-210.0
1334.206,-71.42
1334.221,-66.92
1334.236,-72.87
1334.251,-210.0
1334.266,-67.17
1334.281,-66.93
1334.296,-73.78
1334.311,-71.51
1334.326,-67.05
1334.341,-68.62
1334.356,-210.0
1334.371,-69.16
1334.386,-67.41
1334.401,-73.02
1334.416,-210.0
1334.431,-67.92
1334.446,-68.18
1334.461,-80.59
1334.476,-76.37
1334.491,-67.17
1334.506,-68.36
1334.521,-82.39
1334.536,-67.82
1334.551,-64.97
1334.566,-67.45
1334.581,-71.89
1334.596,-65.91
1334.611,-64.93
1334.626,-68.21
1334.641,-67.51
1334.656,-64.9
1334.671,-66.44
1334.686,-71.49
1334.701,-66.56
1334.716,-64.71
1334.731,-67.36
1334.746,-70.39
1334.761,-65.65
1334.776,-65.58
1334.791,-70.66
1334.806,-69.04
1334.821,-64.59
1334.836,-65.33
1334.851,-67.83
1334.866,-65.25
1334.881,-63.78
1334.896,-66.26
1334.911,-67.75
1334.926,-64.52
1334.941,-64.34
1334.956,-69.33
1334.971,-66.51
1334.986,-65.32
1335.001,-68.21
1335.016,-76.3
1335.031,-65.95
1335.046,-66.18
1335.061,-71.03
1335.076,-71.05
1335.091,-65.32
1335.106,-65.91
1335.121,-70.82
1335.136,-66.86
1335.151,-64.73
1335.166,-66.37
1335.181,-68.97
1335.196,-65.71
1335.211,-65.34
1335.226,-69.85
1335.241,-70.97
1335.256,-66.45
1335.271,-68.16
1335.286,-210.0
1335.301,-70.11
1335.316,-66.73
1335.331,-71.51
1335.346,-210.0
1335.361,-68.19
1335.376,-66.33
1335.391,-75.15
1335.406,-73.71
1335.421,-66.1
1335.436,-69.23
1335.451,-79.73
1335.466,-68.49
1335.481,-67.96
1335.496,-76.39
1335.511,-71.54
1335.526,-66.6
1335.541,-68.18
1335.556,-75.44
1335.571,-68.34
1335.586,-66.5
1335.601,-71.57
1335.616,-80.33
1335.631,-68.76
1335.646,-74.35
1335.661,-210.0
1335.676,-210.0
1335.691,-68.83
1335.706,-210.0
1335.721,-210.0
1335.736,-210.0
1335.751,-70.03
1335.766,-210.0
1335.781,-210.0
1335.796,-69.97
1335.811,-210.0
1335.826,-210.0
1335.841,-210.0
1335.856,-75.2
1335.871,-210.0
1335.886,-210.0
1335.901,-210.0
1335.916,-210.0
1335.931,-210.0
1335.946,-210.0
1335.961,-77.39
1335.976,-210.0
1335.991,-210.0
1336.006,-210.0
1336.021,-70.37
1336.036,-210.0
1336.051,-210.0
1336.066,-70.18
1336.081,-73.97
1336.096,-210.0
1336.111,-210.0
1336.126,-68.8
1336.141,-210.0
1336.156,-210.0
1336.171,-210.0
1336.186,-78.54
1336.201,-210.0
1336.216,-210.0
1336.231,-75.26
1336.246,-210.0
1336.261,-210.0
1336.276,-210.0
1336.291,-70.23
1336.306,-210.0
1336.321,-210.0
1336.336,-77.43
1336.351,-74.06
1336.366,-210.0
1336.381,-210.0
1336.396,-71.21
1336.411,-80.33
1336.426,-210.0
1336.441,-71.91
1336.456,-70.0
1336.471,-210.0
1336.486,-210.0
1336.501,-69.21
1336.516,-210.0
1336.531,-210.0
1336.546,-210.0
1336.561,-70.31
1336.576,-210.0
1336.591,-210.0
1336.606,-210.0
1336.621,-75.03
1336.636,-210.0
1336.651,-210.0
1336.666,-69.49
1336.681,-72.73
1336.696,-210.0
1336.711,-80.89
1336.726,-68.02
1336.741,-210.0
1336.756,-210.0
1336.771,-71.15
1336.786,-71.24
1336.801,-210.0
1336.816,-85.87
1336.831,-68.33
1336.846,-73.6
1336.861,-210.0
1336.876,-72.51
1336.891,-69.61
1336.906,-210.0
1336.921,-210.0
1336.936,-67.65
1336.951,-69.49
1336.966,-210.0
1336.981,-73.18
1336.996,-66.84
1337.011,-71.47
1337.026,-210.0
1337.041,-69.59
1337.056,-69.86
1337.071,-210.0
1337.086,-210.0
1337.101,-69.94
1337.116,-73.65
1337.131,-210.0
1337.146,-83.73
1337.161,-69.92
1337.176,-210.0
1337.191,-210.0
1337.206,-70.18
1337.221,-73.83
1337.236,-210.0
1337.251,-210.0
1337.266,-68.77
1337.281,-74.91
1337.296,-210.0
1337.311,-77.36
1337.326,-72.36
1337.341,-210.0
1337.356,-210.0
1337.371,-70.73
1337.386,-75.47
1337.401,-210.0
1337.416,-210.0
1337.431,-210.0
1337.446,-210.0
1337.461,-210.0
1337.476,-210.0
1337.491,-73.85
1337.506,-210.0
1337.521,-210.0
1337.536,-70.16
1337.551,-72.88
1337.566,-210.0
1337.581,-210.0
1337.596,-73.6
1337.611,-80.24
1337.626,-210.0
1337.641,-210.0
1337.656,-74.33
1337.671,-210.0
1337.686,-210.0
1337.701,-71.41
1337.716,-70.03
1337.731,-210.0
1337.746,-210.0
1337.761,-69.22
1337.776,-83.71
1337.791,-210.0
1337.806,-72.1
1337.821,-67.83
1337.836,-210.0
1337.851,-210.0
1337.866,-69.9
1337.881,-71.32
1337.896,-210.0
1337.911,-73.77
1337.926,-68.24
1337.941,-210.0
1337.956,-210.0
1337.971,-70.22
1337.986,-68.83
1338.001,-210.0
1338.016,-210.0
1338.031,-69.33
1338.046,-70.33
1338.061,-210.0
1338.076,-73.91
1338.091,-68.98
1338.106,-71.93
1338.121,-210.0
1338.136,-68.91
1338.151,-74.21
1338.166,-210.0
1338.181,-75.13
1338.196,-68.42
1338.211,-210.0
1338.226,-210.0
1338.241,-67.31
1338.256,-67.58
1338.271,-210.0
1338.286,-210.0
1338.301,-67.75
1338.316,-69.84
1338.331,-210.0
1338.346,-79.17
1338.361,-68.2
1338.376,-210.0
1338.391,-210.0
1338.406,-74.05
1338.421,-71.72
1338.436,-210.0
1338.451,-210.0
1338.466,-68.12
1338.481,-75.05
1338.496,-210.0
1338.511,-74.35
1338.526,-68.65
1338.541,-210.0
1338.556,-210.0
1338.571,-67.93
1338.586,-69.18
1338.601,-210.0
1338.616,-76.26
1338.631,-67.21
1338.646,-74.13
1338.661,-210.0
1338.676,-68.53
1338.691,-69.41
1338.706,-210.0
1338.721,-210.0
1338.736,-70.94
1338.751,-210.0
1338.766,-210.0
1338.781,-73.87
1338.796,-67.09
1338.811,-74.13
1338.826,-210.0
1338.841,-68.64
1338.856,-67.27
1338.871,-77.41
1338.886,-72.42
1338.901,-66.81
1338.916,-69.04
1338.931,-210.0
1338.946,-70.63
1338.961,-66.91
1338.976,-73.71
1338.991,-210.0
1339.006,-68.69
1339.021,-67.98
1339.036,-210.0
1339.051,-210.0
1339.066,-67.79
1339.081,-69.15
1339.096,-210.0
1339.111,-70.67
1339.126,-66.67
1339.141,-68.33
1339.156,-64.95
1339.171,-65.01
1339.186,-67.08
1339.201,-66.84
1339.216,-64.27
1339.231,-65.79
1339.246,-68.9
1339.261,-66.09
1339.276,-64.38
1339.291,-65.78
1339.306,-66.53
1339.321,-65.16
1339.336,-64.61
1339.351,-66.54
1339.366,-65.98
1339.381,-64.37
1339.396,-64.19
1339.411,-66.36
1339.426,-65.02
1339.441,-63.96
1339.456,-66.18
1339.471,-67.31
1339.486,-64.33
1339.501,-63.86
1339.516,-65.96
1339.531,-65.43
1339.546,-63.56
1339.561,-64.38
1339.576,-66.91
1339.591,-65.37
1339.606,-64.43
1339.621,-67.0
1339.636,-68.34
1339.651,-65.35
1339.666,-64.94
1339.681,-67.91
1339.696,-65.85
1339.711,-64.15
1339.726,-65.69
1339.741,-66.58
1339.756,-64.8
1339.771,-63.45
1339.786,-65.49
1339.801,-66.13
1339.816,-64.42
1339.831,-63.75
1339.846,-65.75
1339.861,-65.6
1339.876,-65.91
1339.891,-66.36
1339.906,-65.88
1339.921,-66.37
1339.936,-66.85
1339.951,-66.11
1339.966,-65.86
1339.981,-65.55
1339.996,-66.06
1340.011,-66.22
1340.026,-65.04
1340.041,-64.61
1340.056,-65.49
1340.071,-65.63
1340.086,-64.95
1340.101,-64.7
1340.116,-65.2
1340.131,-64.73
1340.146,-64.94
1340.161,-68.84
1340.176,-66.78
1340.191,-64.9
1340.206,-67.72
1340.221,-69.43
1340.236,-65.95
1340.251,-65.11
1340.266,-68.59
1340.281,-68.23
1340.296,-65.38
1340.311,-66.46
1340.326,-70.92
1340.341,-66.64
1340.356,-64.72
1340.371,-67.51
1340.386,-67.72
1340.401,-67.17
1340.416,-65.44
1340.431,-68.7
1340.446,-68.58
1340.461,-64.93
1340.476,-65.32
1340.491,-68.43
1340.506,-67.17
1340.521,-64.78
1340.536,-68.72
1340.551,-70.84
1340.566,-68.34
1340.581,-68.48
1340.596,-68.3
1340.611,-67.91
1340.626,-66.26
1340.641,-66.68
1340.656,-65.82
1340.671,-65.19
1340.686,-66.08
1340.701,-67.1
1340.716,-65.7
1340.731,-64.44
1340.746,-65.91
1340.761,-66.46
1340.776,-66.39
1340.791,-65.65
1340.806,-68.6
1340.821,-68.24
1340.836,-68.38
1340.851,-69.5
1340.866,-210.0
1340.881,-66.38
1340.896,-66.43
1340.911,-77.94
1340.926,-72.47
1340.941,-65.33
1340.956,-66.43
1340.971,-78.34
1340.986,-69.15
1341.001,-69.05
1341.016,-69.42
1341.031,-69.42
1341.046,-68.9
1341.061,-69.69
1341.076,-68.26
1341.091,-68.05
1341.106,-69.01
1341.121,-71.68
1341.136,-70.61
1341.151,-70.07
1341.167,-69.26
1341.181,-70.62
1341.196,-69.74
1341.211,-67.45
1341.226,-69.77
1341.241,-68.89
1341.256,-67.97
1341.271,-67.69
1341.286,-69.86
1341.302,-68.46
1341.316,-67.39
1341.331,-68.15
1341.346,-68.04
1341.361,-67.87
1341.376,-67.08
1341.391,-70.74
1341.406,-68.96
1341.422,-76.73
1341.437,-69.35
1341.452,-66.82
1341.466,-69.31
1341.481,-72.31
1341.496,-66.86
1341.511,-66.95
1341.526,-71.9
1341.542,-68.07
1341.557,-65.93
1341.572,-66.59
1341.587,-66.64
1341.601,-65.89
1341.616,-65.82
1341.631,-65.52
1341.646,-65.27
1341.661,-65.04
1341.677,-66.08
1341.692,-66.05
1341.707,-65.26
1341.722,-65.45
1341.737,-67.34
1341.751,-67.03
1341.766,-65.67
1341.781,-65.48
1341.797,-66.14
1341.812,-65.59
1341.827,-64.58
1341.842,-65.38
1341.857,-66.19
1341.872,-64.6
1341.887,-64.89
1341.901,-65.31
1341.917,-65.06
1341.932,-63.64
1341.947,-64.62
1341.962,-67.65
1341.977,-65.52
1341.992,-64.63
1342.007,-63.91
1342.022,-65.21
1342.036,-66.53
1342.052,-65.32
1342.067,-64.62
1342.082,-64.1
1342.097,-65.02
1342.112,-65.65
1342.127,-64.06
1342.142,-64.22
1342.157,-65.17
1342.172,-65.64
1342.187,-64.16
1342.202,-64.58
1342.217,-66.4
1342.232,-64.87
1342.247,-64.33
1342.262,-66.06
1342.277,-66.83
1342.292,-65.2
1342.307,-65.33
1342.322,-68.3
1342.337,-68.07
1342.352,-67.38
1342.367,-68.23
1342.382,-72.0
1342.397,-67.78
1342.412,-67.34
1342.427,-66.13
1342.442,-66.65
1342.457,-67.22
1342.472,-66.43
1342.487,-66.13
1342.502,-68.16
1342.517,-67.94
1342.532,-66.29
1342.547,-67.33
1342.562,-70.61
1342.577,-68.92
1342.592,-66.76
1342.607,-72.79
1342.622,-74.57
1342.637,-70.23
1342.652,-69.24
1342.667,-210.0
1342.682,-210.0
1342.697,-210.0
1342.712,-84.52
1342.727,-210.0
1342.742,-210.0
1342.757,-210.0
1342.772,-77.7
1342.787,-210.0
1342.802,-210.0
1342.817,-210.0
1342.832,-210.0
1342.847,-210.0
1342.862,-210.0
1342.877,-72.03
1342.892,-84.07
1342.907,-210.0
1342.922,-85.48
1342.937,-76.7
1342.952,-210.0
1342.967,-210.0
1342.982,-72.09
1342.997,-73.64
1343.012,-77.59
1343.027,-76.15
1343.042,-70.51
1343.057,-71.46
1343.072,-70.83
1343.087,-210.0
1343.102,-210.0
1343.117,-210.0
1343.132,-210.0
1343.147,-210.0
1343.162,-210.0
1343.177,-210.0
1343.192,-210.0
1343.207,-210.0
1343.222,-210.0
1343.237,-210.0
1343.252,-210.0
1343.267,-210.0
1343.282,-210.0
1343.297,-210.0
1343.312,-210.0
1343.327,-210.0
1343.342,-210.0
1343.357,-93.76
1343.372,-210.0
1343.387,-80.24
1343.402,-73.72
1343.417,-74.6
1343.432,-72.06
1343.447,-79.04
1343.462,-75.17
1343.477,-76.59
1343.492,-73.53
1343.507,-75.09
1343.522,-77.83
1343.537,-210.0
1343.552,-210.0
1343.567,-72.65
1343.582,-210.0
1343.597,-210.0
1343.612,-210.0
1343.627,-70.33
1343.642,-210.0
1343.657,-210.0
1343.672,-74.25
1343.687,-75.43
1343.702,-74.46
1343.717,-71.27
1343.732,-72.98
1343.747,-210.0
1343.762,-73.26
1343.777,-71.93
1343.792,-70.96
1343.807,-77.03
1343.822,-74.1
1343.837,-72.61
1343.852,-83.15
1343.867,-210.0
1343.882,-210.0
1343.897,-77.0
1343.912,-210.0
1343.927,-80.14
1343.942,-79.12
1343.957,-210.0
1343.972,-210.0
1343.987,-69.52
1344.002,-75.98
1344.017,-210.0
1344.032,-75.21
1344.047,-70.49
1344.062,-210.0
1344.077,-210.0
1344.092,-70.33
1344.107,-74.89
1344.122,-74.04
1344.137,-75.53
1344.152,-73.83
1344.167,-68.56
1344.182,-68.4
1344.197,-69.59
1344.212,-70.04
1344.227,-68.37
1344.242,-67.73
1344.257,-67.48
1344.272,-68.51
1344.287,-66.12
1344.302,-66.84
1344.317,-66.05
1344.332,-67.49
1344.347,-67.56
1344.362,-68.96
1344.377,-73.62
1344.392,-210.0
1344.407,-71.67
1344.422,-69.3
1344.437,-210.0
1344.452,-74.59
1344.467,-68.31
1344.482,-70.51
1344.497,-210.0
1344.512,-68.87
1344.527,-68.17
1344.542,-65.95
1344.557,-68.1
1344.572,-66.96
1344.587,-67.28
1344.602,-66.49
1344.617,-66.84
1344.632,-68.01
1344.647,-66.12
1344.662,-66.45
1344.677,-67.73
1344.692,-68.36
1344.707,-66.9
1344.722,-70.46
1344.737,-71.63
1344.752,-68.81
1344.767,-69.23
1344.782,-70.35
1344.797,-70.62
1344.812,-79.28
1344.827,-68.16
1344.842,-70.26
1344.857,-210.0
1344.872,-77.23
1344.887,-68.07
1344.902,-68.8
1344.917,-81.24
1344.932,-72.9
1344.947,-69.71
1344.962,-66.69
1344.977,-66.67
1344.992,-71.94
1345.007,-70.83
1345.022,-67.44
1345.037,-71.11
1345.052,-74.06
1345.067,-68.87
1345.082,-66.8
1345.097,-210.0
1345.112,-210.0
1345.127,-66.47
1345.142,-65.92
1345.157,-70.95
1345.172,-69.98
1345.187,-65.97
1345.202,-66.06
1345.217,-65.48
1345.232,-66.76
1345.247,-66.52
1345.262,-66.24
1345.277,-66.3
1345.292,-68.75
1345.307,-67.77
1345.322,-67.01
1345.337,-69.49
1345.352,-71.36
1345.367,-68.21
1345.382,-66.97
1345.397,-65.76
1345.412,-66.28
1345.427,-66.75
1345.442,-66.42
1345.457,-66.56
1345.472,-68.61
1345.487,-68.18
1345.502,-65.68
1345.517,-68.95
1345.532,-70.76
1345.547,-69.56
1345.562,-68.18
1345.577,-76.48
1345.592,-210.0
1345.607,-210.0
1345.622,-72.25
1345.637,-71.28
1345.652,-210.0
1345.667,-210.0
1345.682,-70.51
1345.697,-71.76
1345.712,-75.14
1345.727,-70.29
1345.742,-66.93
1345.757,-69.71
1345.772,-71.82
1345.787,-68.86
1345.802,-69.96
1345.817,-67.02
1345.832,-70.76
1345.847,-69.13
1345.862,-67.92
1345.877,-67.17
1345.892,-66.19
1345.907,-67.8
1345.922,-69.18
1345.937,-66.13
1345.952,-65.63
1345.967,-69.77
1345.982,-82.32
1345.997,-66.62
1346.012,-67.32
1346.027,-69.84
1346.042,-66.68
1346.057,-65.4
1346.072,-66.91
1346.087,-71.44
1346.102,-65.7
1346.117,-65.78
1346.132,-69.88
1346.147,-210.0
1346.162,-67.45
1346.177,-67.56
1346.192,-71.75
1346.207,-66.99
1346.222,-73.36
1346.237,-210.0
1346.252,-69.36
1346.267,-68.4
1346.282,-78.15
1346.297,-72.62
1346.312,-67.33
1346.327,-69.97
1346.342,-210.0
1346.357,-68.16
1346.372,-65.41
1346.387,-69.22
1346.402,-71.76
1346.417,-66.44
1346.432,-67.48
1346.447,-74.22
1346.462,-70.49
1346.477,-66.29
1346.492,-70.87
1346.507,-70.61
1346.522,-66.89
1346.537,-68.79
1346.552,-73.51
1346.567,-67.73
1346.582,-65.25
1346.597,-68.16
1346.612,-65.33
1346.627,-64.53
1346.642,-65.69
1346.657,-68.23
1346.672,-64.24
1346.687,-64.71
1346.702,-67.8
1346.717,-67.73
1346.732,-64.58
1346.747,-66.4
1346.762,-70.69
1346.777,-65.58
1346.792,-64.43
1346.807,-67.61
1346.822,-70.95
1346.837,-65.7
1346.852,-66.34
1346.867,-71.06
1346.882,-66.31
1346.897,-66.82
1346.912,-71.86
1346.927,-66.07
1346.942,-65.74
1346.957,-73.21
1346.972,-69.78
1346.987,-64.97
1347.002,-66.3
1347.017,-70.92
1347.032,-66.4
1347.047,-66.03
1347.062,-71.13
1347.077,-210.0
1347.092,-67.8
1347.107,-69.1
1347.122,-210.0
1347.137,-71.87
1347.152,-66.45
1347.167,-70.02
1347.182,-210.0
1347.197,-76.01
1347.212,-210.0
1347.227,-210.0
1347.242,-74.8
1347.257,-70.5
1347.272,-75.24
1347.287,-210.0
1347.302,-71.63
1347.317,-69.9
1347.332,-71.5
1347.347,-66.22
1347.362,-66.09
1347.377,-210.0
1347.392,-71.45
1347.407,-65.43
1347.422,-68.2
1347.437,-210.0
1347.452,-68.84
1347.467,-65.87
1347.482,-70.52
1347.497,-67.5
1347.512,-66.09
1347.527,-65.41
1347.542,-65.1
1347.557,-65.64
1347.572,-65.63
1347.587,-65.33
1347.602,-64.46
1347.617,-65.84
1347.632,-65.18
1347.647,-67.87
1347.662,-64.54
1347.677,-64.53
1347.692,-66.38
1347.707,-66.24
1347.722,-64.56
1347.737,-64.91
1347.752,-65.79
1347.767,-64.46
1347.782,-64.42
1347.797,-65.64
1347.812,-66.23
1347.827,-63.63
1347.842,-63.36
1347.857,-64.47
1347.872,-62.43
1347.887,-62.55
1347.902,-64.0
1347.917,-62.93
1347.932,-62.75
1347.947,-63.81
1347.962,-63.34
1347.977,-62.56
1347.992,-62.87
1348.007,-64.56
1348.022,-63.6
1348.037,-63.35
1348.052,-63.88
1348.067,-64.69
1348.082,-62.66
1348.097,-64.02
1348.112,-65.14
1348.127,-62.63
1348.142,-62.28
1348.157,-63.17
1348.172,-62.99
1348.187,-61.58
1348.202,-61.91
1348.217,-62.94
1348.232,-62.08
1348.247,-61.53
1348.262,-62.44
1348.277,-63.32
1348.292,-62.08
1348.307,-61.68
1348.322,-62.68
1348.337,-62.01
1348.352,-63.33
1348.367,-64.67
1348.382,-62.42
1348.397,-62.06
1348.412,-64.04
1348.427,-64.29
1348.442,-62.41
1348.457,-62.56
1348.472,-64.41
1348.487,-63.08
1348.502,-62.08
1348.517,-63.04
1348.532,-65.46
1348.547,-64.21
1348.562,-62.96
1348.577,-63.22
1348.592,-63.44
1348.607,-63.46
1348.622,-63.77
1348.637,-64.34
1348.652,-62.47
1348.667,-63.1
1348.682,-64.76
1348.697,-63.43
1348.712,-61.89
1348.727,-63.14
1348.742,-63.76
1348.757,-62.64
1348.772,-62.82
1348.787,-64.39
1348.802,-63.94
1348.817,-62.46
1348.832,-63.04
1348.847,-64.68
1348.862,-63.98
1348.877,-67.86
1348.892,-67.19
1348.907,-64.73
1348.922,-65.46
1348.937,-70.79
1348.952,-66.75
1348.967,-64.79
1348.982,-67.55
1348.997,-69.64
1349.012,-65.12
1349.027,-64.37
1349.042,-66.68
1349.057,-66.43
1349.072,-63.29
1349.087,-65.06
1349.102,-64.57
1349.117,-63.11
1349.132,-63.55
1349.147,-66.02
1349.162,-64.22
1349.177,-64.4
1349.193,-67.0
1349.207,-66.17
1349.222,-64.39
1349.237,-66.69
1349.252,-68.15
1349.267,-66.47
1349.282,-65.22
1349.297,-67.65
1349.313,-67.68
1349.328,-65.28
1349.343,-68.37
1349.357,-68.47
1349.372,-64.58
1349.387,-65.92
1349.402,-70.86
1349.417,-67.32
1349.432,-64.05
1349.448,-65.19
1349.463,-65.56
1349.478,-63.24
1349.492,-64.58
1349.507,-65.97
1349.522,-64.82
1349.537,-63.38
1349.552,-65.2
1349.568,-64.87
1349.583,-63.65
1349.598,-65.1
1349.613,-67.18
1349.628,-63.77
1349.642,-63.32
1349.657,-64.99
1349.672,-64.76
1349.688,-62.55
1349.703,-64.53
1349.718,-64.81
1349.733,-62.93
1349.748,-63.14
1349.763,-64.64
1349.777,-63.38
1349.792,-62.25
1349.807,-63.39
1349.823,-63.97
1349.838,-63.19
1349.853,-62.81
1349.868,-63.76
1349.883,-61.68
1349.898,-61.3
1349.913,-62.41
1349.927,-61.73
1349.943,-60.93
1349.958,-61.81
1349.973,-61.92
1349.988,-61.13
1350.003,-61.32
1350.018,-61.95
1350.033,-61.86
1350.048,-60.87
1350.063,-61.53
1350.078,-62.6
1350.093,-61.61
1350.108,-61.41
1350.123,-62.65
1350.138,-63.18
1350.153,-61.64
1350.168,-63.03
1350.183,-62.73
1350.198,-61.63
1350.213,-62.12
1350.228,-62.73
1350.243,-61.44
1350.258,-61.35
1350.273,-62.31
1350.288,-62.42
1350.303,-61.16
1350.318,-61.42
1350.333,-63.06
1350.348,-62.54
1350.363,-61.55
1350.378,-62.54
1350.393,-62.06
1350.408,-61.36
1350.423,-62.05
1350.438,-62.66
1350.453,-62.38
1350.468,-62.32
1350.483,-64.06
1350.498,-62.62
1350.513,-61.74
1350.528,-62.8
1350.543,-63.74
1350.558,-61.8
1350.573,-61.91
1350.588,-63.92
1350.603,-63.4
1350.618,-61.92
1350.633,-62.94
1350.648,-63.12
1350.663,-62.65
1350.678,-63.16
1350.693,-64.59
1350.708,-62.94
1350.723,-63.29
1350.738,-65.92
1350.753,-65.14
1350.768,-64.06
1350.783,-65.88
1350.798,-68.8
1350.813,-64.72
1350.828,-64.46
1350.843,-67.1
1350.858,-66.12
1350.873,-64.46
1350.888,-65.25
1350.903,-70.1
1350.918,-65.97
1350.933,-66.08
1350.948,-69.35
1350.963,-65.43
1350.978,-66.02
1350.993,-70.13
1351.008,-68.17
1351.023,-65.96
1351.038,-67.4
1351.053,-210.0
1351.068,-68.87
1351.083,-65.49
1351.098,-68.26
1351.113,-71.07
1351.128,-65.39
1351.143,-64.77
1351.158,-68.56
1351.173,-65.68
1351.188,-64.49
1351.203,-66.26
1351.218,-66.83
1351.233,-64.91
1351.248,-69.46
1351.263,-72.67
1351.278,-66.46
1351.293,-65.47
1351.308,-70.76
1351.323,-69.3
1351.338,-65.2
1351.353,-66.84
1351.368,-71.01
1351.383,-65.93
1351.398,-67.28
1351.413,-75.42
1351.428,-67.11
1351.443,-65.41
1351.458,-66.4
1351.473,-70.22
1351.488,-65.98
1351.503,-66.03
1351.518,-71.78
1351.533,-66.56
1351.548,-65.36
1351.563,-69.49
1351.578,-69.6
1351.593,-65.58
1351.608,-66.14
1351.623,-210.0
1351.638,-69.52
1351.653,-68.04
1351.668,-72.03
1351.683,-72.0
1351.698,-68.62
1351.713,-77.93
1351.728,-210.0
1351.743,-68.18
1351.758,-70.27
1351.773,-210.0
1351.788,-70.34
1351.803,-65.95
1351.818,-69.35
1351.833,-73.54
1351.848,-65.7
1351.863,-67.03
1351.878,-69.94
1351.893,-69.22
1351.908,-67.92
1351.923,-74.04
1351.938,-76.27
1351.953,-68.97
1351.968,-210.0
1351.983,-210.0
1351.998,-70.07
1352.013,-69.27
1352.028,-210.0
1352.043,-70.71
1352.058,-66.35
1352.073,-69.0
1352.088,-69.9
1352.103,-69.1
1352.118,-71.23
1352.133,-71.89
1352.148,-70.38
1352.163,-68.76
1352.178,-72.1
1352.193,-73.85
1352.208,-71.02
1352.223,-76.73
1352.238,-210.0
1352.253,-68.72
1352.268,-67.27
1352.283,-67.69
1352.298,-68.15
1352.313,-66.55
1352.328,-67.54
1352.343,-68.04
1352.358,-66.76
1352.373,-67.13
1352.388,-67.55
1352.403,-67.66
1352.418,-66.33
1352.433,-66.9
1352.448,-68.19
1352.463,-210.0
1352.478,-67.62
1352.493,-67.11
1352.508,-73.7
1352.523,-71.05
1352.538,-72.18
1352.553,-74.92
1352.568,-78.38
1352.583,-77.74
1352.598,-76.93
1352.613,-210.0
1352.628,-72.37
1352.643,-67.59
1352.658,-68.96
1352.673,-75.09
1352.688,-66.19
1352.703,-68.98
1352.718,-69.46
1352.733,-66.63
1352.748,-66.8
1352.763,-69.45
1352.778,-68.62
1352.793,-67.41
1352.808,-67.39
1352.823,-68.83
1352.838,-67.57
1352.853,-67.97
1352.868,-67.7
1352.883,-70.3
1352.898,-70.54
1352.913,-71.49
1352.928,-67.52
1352.943,-67.43
1352.958,-68.89
1352.973,-68.27
1352.988,-67.16
1353.003,-66.89
1353.018,-69.35
1353.033,-68.26
1353.048,-68.35
1353.063,-69.51
1353.078,-70.54
1353.093,-75.29
1353.108,-70.55
1353.123,-67.93
1353.138,-67.69
1353.153,-67.48
1353.168,-70.55
1353.183,-68.75
1353.198,-67.56
1353.213,-68.99
1353.228,-67.66
1353.243,-66.04
1353.258,-66.15
1353.273,-66.44
1353.288,-70.41
1353.303,-69.11
1353.318,-66.26
1353.333,-68.15
1353.348,-69.0
1353.363,-71.24
1353.378,-68.51
1353.393,-66.72
1353.408,-67.73
1353.423,-71.07
1353.438,-69.38
1353.453,-69.53
1353.468,-66.15
1353.483,-70.51
1353.498,-71.23
1353.513,-67.07
1353.528,-65.45
1353.543,-68.82
1353.558,-66.92
1353.573,-65.22
1353.588,-64.83
1353.603,-65.03
1353.618,-65.71
1353.633,-65.08
1353.648,-64.74
1353.663,-65.86
1353.678,-66.27
1353.693,-70.17
1353.708,-66.77
1353.723,-65.06
1353.738,-68.49
1353.753,-70.06
1353.768,-70.08
1353.783,-67.2
1353.798,-66.02
1353.813,-67.68
1353.828,-70.72
1353.843,-66.92
1353.858,-66.89
1353.873,-68.2
1353.888,-67.3
1353.903,-66.46
1353.918,-65.09
1353.933,-65.33
1353.948,-64.64
1353.963,-66.27
1353.978,-65.99
1353.993,-65.33
1354.008,-65.75
1354.023,-66.38
1354.038,-65.4
1354.053,-65.15
1354.068,-66.08
1354.083,-65.23
1354.098,-65.95
1354.113,-65.44
1354.128,-64.86
1354.143,-64.94
1354.158,-65.46
1354.173,-65.07
1354.188,-64.83
1354.203,-64.55
1354.218,-64.65
1354.233,-65.23
1354.248,-64.81
1354.263,-64.69
1354.278,-64.35
1354.293,-64.0
1354.308,-63.35
1354.323,-66.47
1354.338,-64.98
1354.353,-63.91
1354.368,-63.57
1354.383,-63.94
1354.398,-64.31
1354.413,-64.23
1354.428,-64.18
1354.443,-63.88
1354.458,-63.61
1354.473,-63.33
1354.488,-63.18
1354.503,-63.24
1354.518,-64.08
1354.533,-65.74
1354.548,-63.44
1354.563,-63.66
1354.578,-64.7
1354.593,-65.53
1354.608,-65.08
1354.623,-65.0
1354.638,-64.95
1354.653,-65.43
1354.668,-65.87
1354.683,-66.05
1354.698,-63.41
1354.713,-64.0
1354.728,-66.17
1354.743,-63.27
1354.758,-62.98
1354.773,-62.99
1354.788,-62.9
1354.803,-62.79
1354.818,-63.19
1354.833,-62.89
1354.848,-62.8
1354.863,-62.81
1354.878,-64.81
1354.893,-62.79
1354.908,-62.67
1354.923,-63.9
1354.938,-63.51
1354.953,-63.27
1354.968,-63.33
1354.983,-63.45
1354.998,-63.0
1355.013,-62.9
1355.028,-63.06
1355.043,-62.68
1355.058,-62.59
1355.073,-63.8
1355.088,-63.16
1355.103,-61.7
1355.118,-62.77
1355.133,-63.47
1355.148,-62.73
1355.163,-63.04
1355.178,-64.27
1355.193,-62.87
1355.208,-62.78
1355.223,-63.69
1355.238,-63.44
1355.253,-62.55
1355.268,-64.23
1355.283,-65.34
1355.298,-63.22
1355.313,-64.27
1355.328,-64.31
1355.343,-63.11
1355.358,-62.82
1355.373,-64.27
1355.388,-63.91
1355.403,-63.21
1355.418,-63.67
1355.433,-63.89
1355.448,-62.26
1355.463,-62.9
1355.478,-65.46
1355.493,-64.0
1355.508,-62.85
1355.523,-63.49
1355.538,-63.31
1355.553,-62.99
1355.568,-63.46
1355.583,-63.17
1355.598,-62.73
1355.613,-62.77
1355.628,-64.86
1355.643,-63.14
1355.658,-62.75
1355.673,-63.59
1355.688,-63.73
1355.703,-63.53
1355.718,-63.34
1355.733,-63.32
1355.748,-63.91
1355.763,-64.01
1355.778,-63.56
1355.793,-63.65
1355.808,-64.38
1355.823,-65.47
1355.838,-65.46
1355.853,-64.43
1355.868,-65.13
1355.883,-64.64
1355.898,-64.69
1355.913,-64.63
1355.928,-64.01
1355.943,-64.5
1355.958,-64.18
1355.973,-64.76
1355.988,-64.43
1356.003,-63.06
1356.018,-64.5
1356.033,-65.65
1356.048,-64.38
1356.063,-64.88
1356.078,-64.69
1356.093,-65.25
1356.108,-65.96
1356.123,-65.05
1356.138,-65.79
1356.153,-66.04
1356.168,-66.6
1356.183,-66.32
1356.198,-64.58
1356.213,-64.55
1356.228,-67.03
1356.243,-65.24
1356.258,-65.31
1356.273,-64.59
1356.288,-65.44
1356.303,-66.22
1356.318,-65.88
1356.333,-64.97
1356.348,-67.15
1356.363,-68.09
1356.378,-210.0
1356.393,-68.53
1356.408,-68.25
1356.423,-73.35
1356.438,-75.03
1356.453,-76.15
1356.468,-73.12
1356.483,-72.0
1356.498,-71.22
1356.513,-71.77
1356.528,-69.0
1356.543,-69.82
1356.558,-67.44
1356.573,-70.51
1356.588,-80.38
1356.603,-67.72
1356.618,-69.17
1356.633,-68.84
1356.648,-68.68
1356.663,-68.38
1356.678,-72.49
1356.693,-69.12
1356.708,-68.12
1356.723,-69.29
1356.738,-72.27
1356.753,-66.74
1356.768,-68.86
1356.783,-210.0
1356.798,-68.3
1356.813,-66.26
1356.828,-68.65
1356.843,-67.28
1356.858,-65.52
1356.873,-66.72
1356.888,-67.08
1356.903,-66.66
1356.918,-65.7
1356.933,-68.83
1356.948,-64.52
1356.963,-65.7
1356.978,-70.41
1356.993,-66.39
1357.008,-67.25
1357.023,-69.36
1357.038,-68.69
1357.053,-68.0
1357.068,-67.71
1357.083,-67.79
1357.098,-67.39
1357.113,-65.95
1357.128,-73.11
1357.143,-65.64
1357.158,-65.19
1357.173,-67.96
1357.188,-67.46
1357.203,-66.98
1357.219,-69.02
1357.233,-69.53
1357.248,-74.44
1357.263,-73.74
1357.278,-70.51
1357.293,-68.21
1357.308,-66.44
1357.323,-69.97
1357.339,-85.49
1357.354,-66.2
1357.369,-67.17
1357.383,-65.16
1357.398,-65.66
1357.413,-65.16
1357.428,-64.35
1357.443,-64.13
1357.458,-64.74
1357.474,-64.83
1357.489,-65.51
1357.504,-63.31
1357.518,-63.69
1357.533,-66.3
1357.548,-64.49
1357.563,-64.38
1357.578,-64.67
1357.594,-65.04
1357.609,-65.59
1357.624,-66.92
1357.639,-66.41
1357.654,-64.59
1357.668,-65.28
1357.683,-65.96
1357.698,-64.42
1357.714,-63.85
1357.729,-65.06
1357.744,-64.81
1357.759,-65.6
1357.774,-64.32
1357.789,-63.89
1357.803,-63.67
1357.818,-64.65
1357.833,-65.08
1357.849,-63.69
1357.864,-63.68
1357.879,-65.93
1357.894,-65.5
1357.909,-63.84
1357.924,-65.19
1357.939,-65.69
1357.953,-67.05
1357.969,-68.92
1357.984,-67.05
1357.999,-65.63
1358.014,-66.48
1358.029,-68.55
1358.044,-66.33
1358.059,-64.45
1358.074,-66.02
1358.089,-67.44
1358.104,-65.66
1358.119,-72.19
1358.134,-67.04
1358.149,-67.85
1358.164,-69.36
1358.179,-77.51
1358.194,-67.69
1358.209,-67.35
1358.224,-73.09
1358.239,-74.26
1358.254,-65.42
1358.269,-65.39
1358.284,-66.51
1358.299,-64.75
1358.314,-67.24
1358.329,-69.25
1358.344,-64.81
1358.359,-64.38
1358.374,-68.11
1358.389,-67.37
1358.404,-65.02
1358.419,-65.38
1358.434,-66.58
1358.449,-64.42
1358.464,-65.08
1358.479,-70.52
1358.494,-65.27
1358.509,-65.15
1358.524,-71.61
1358.539,-71.01
1358.554,-66.37
1358.569,-67.4
1358.584,-72.38
1358.599,-65.6
1358.614,-66.01
1358.629,-70.96
1358.644,-65.86
1358.659,-66.25
1358.674,-72.79
1358.689,-70.06
1358.704,-67.21
1358.719,-69.66
1358.734,-210.0
1358.749,-68.49
1358.764,-70.63
1358.779,-210.0
1358.794,-71.63
1358.809,-71.61
1358.824,-210.0
1358.839,-210.0
1358.854,-72.48
1358.869,-210.0
1358.884,-210.0
1358.899,-73.33
1358.914,-210.0
1358.929,-210.0
1358.944,-210.0
1358.959,-72.96
1358.974,-210.0
1358.989,-73.55
1359.004,-71.41
1359.019,-210.0
1359.034,-210.0
1359.049,-69.63
1359.064,-210.0
1359.079,-210.0
1359.094,-86.96
1359.109,-210.0
1359.124,-210.0
1359.139,-77.42
1359.154,-73.03
1359.169,-210.0
1359.184,-75.34
1359.199,-69.0
1359.214,-76.01
1359.229,-70.65
1359.244,-65.49
1359.259,-67.81
1359.274,-75.03
1359.289,-68.39
1359.304,-75.15
1359.319,-210.0
1359.334,-70.59
1359.349,-69.72
1359.364,-210.0
1359.379,-72.95
1359.394,-68.01
1359.409,-76.81
1359.424,-210.0
1359.439,-210.0
1359.454,-210.0
1359.469,-210.0
1359.484,-74.91
1359.499,-72.69
1359.514,-210.0
1359.529,-210.0
1359.544,-69.91
1359.559,-210.0
1359.574,-210.0
1359.589,-210.0
1359.604,-210.0
1359.619,-210.0
1359.634,-74.89
1359.649,-72.9
1359.664,-210.0
1359.679,-210.0
1359.694,-78.55
1359.709,-210.0
1359.724,-210.0
1359.739,-74.71
1359.754,-210.0
1359.769,-210.0
1359.784,-71.45
1359.799,-70.81
1359.814,-210.0
1359.829,-210.0
1359.844,-70.48
1359.859,-210.0
1359.874,-210.0
1359.889,-72.0
1359.904,-210.0
1359.919,-210.0
1359.934,-76.52
1359.949,-74.46
1359.964,-210.0
1359.979,-210.0
1359.994,-210.0
1360.009,-210.0
1360.024,-210.0
1360.039,-71.1
1360.054,-210.0
1360.069,-72.05
1360.084,-65.75
1360.099,-67.27
1360.114,-73.43
1360.129,-69.99
1360.144,-66.69
1360.159,-68.03
1360.174,-67.88
1360.189,-65.03
1360.204,-67.55
1360.219,-69.53
1360.234,-67.57
1360.249,-70.15
1360.264,-210.0
1360.279,-68.83
1360.294,-69.52
1360.309,-72.23
1360.324,-65.85
1360.339,-65.0
1360.354,-67.51
1360.369,-67.49
1360.384,-65.81
1360.399,-68.66
1360.414,-70.87
1360.429,-66.96
1360.444,-66.62
1360.459,-70.99
1360.474,-65.38
1360.489,-67.36
1360.504,-81.51
1360.519,-69.73
1360.534,-65.93
1360.549,-71.06
1360.564,-69.38
1360.579,-65.07
1360.594,-66.07
1360.609,-71.14
1360.624,-65.25
1360.639,-67.07
1360.654,-68.77
1360.669,-68.26
1360.684,-65.09
1360.699,-67.54
1360.714,-65.35
1360.729,-64.02
1360.744,-64.47
1360.759,-64.11
1360.774,-63.4
1360.789,-64.55
1360.804,-65.91
1360.819,-64.96
1360.834,-63.79
1360.849,-66.73
1360.864,-63.8
1360.879,-63.02
1360.894,-65.26
1360.909,-63.67
1360.924,-62.2
1360.939,-63.15
1360.954,-64.02
1360.969,-62.51
1360.984,-61.71
1360.999,-63.22
1361.014,-62.08
1361.029,-62.72
1361.044,-63.88
1361.059,-63.0
1361.074,-62.01
1361.089,-64.31
1361.104,-65.33
1361.119,-63.66
1361.134,-62.97
1361.149,-64.87
1361.164,-65.2
1361.179,-66.35
1361.194,-69.66
1361.209,-66.12
1361.224,-65.17
1361.239,-67.58
1361.254,-68.26
1361.269,-64.74
1361.284,-64.83
1361.299,-64.98
1361.314,-64.26
1361.329,-67.21
1361.344,-69.27
1361.359,-65.76
1361.374,-65.57
1361.389,-69.74
1361.404,-68.23
1361.419,-65.14
1361.434,-66.22
1361.449,-65.83
1361.464,-64.53
1361.479,-71.95
1361.494,-69.2
1361.509,-64.24
1361.524,-63.88
1361.539,-66.34
1361.554,-64.65
1361.569,-64.68
1361.584,-66.69
1361.599,-65.59
1361.614,-64.01
1361.629,-66.77
1361.644,-65.37
1361.659,-63.72
1361.674,-64.44
1361.689,-66.36
1361.704,-64.34
1361.719,-66.23
1361.734,-67.36
1361.749,-65.24
1361.764,-66.44
1361.779,-75.35
1361.794,-67.09
1361.809,-64.82
1361.824,-65.67
1361.839,-65.29
1361.854,-63.76
1361.869,-65.72
1361.884,-67.22
1361.899,-63.81
1361.914,-64.65
1361.929,-68.7
1361.944,-65.34
1361.959,-64.34
1361.974,-66.1
1361.989,-65.38
1362.004,-64.44
1362.019,-67.68
1362.034,-66.09
1362.049,-64.3
1362.064,-65.83
1362.079,-73.73
1362.094,-66.05
1362.109,-67.49
1362.124,-68.01
1362.139,-66.69
1362.154,-64.92
1362.169,-67.16
1362.184,-65.25
1362.199,-63.25
1362.214,-64.78
1362.229,-65.67
1362.244,-64.51
1362.259,-65.67
1362.274,-66.19
1362.289,-64.74
1362.304,-66.52
1362.319,-79.37
1362.334,-66.83
1362.349,-65.13
1362.364,-69.47
1362.379,-67.77
1362.394,-66.28
1362.409,-69.05
1362.424,-67.23
1362.439,-65.92
1362.454,-70.98
1362.469,-79.0
1362.484,-65.74
1362.499,-65.37
1362.514,-66.11
1362.529,-66.8
1362.544,-67.51
1362.559,-70.53
1362.574,-66.78
1362.589,-65.24
1362.604,-70.29
1362.619,-70.85
1362.634,-66.72
1362.649,-66.75
1362.664,-66.67
1362.679,-68.46
1362.694,-68.54
1362.709,-68.81
1362.724,-64.8
1362.739,-64.47
1362.754,-69.97
1362.769,-71.73
1362.784,-64.93
1362.799,-68.76
1362.814,-69.35
1362.829,-67.79
1362.844,-210.0
1362.859,-210.0
1362.874,-69.46
1362.889,-68.13
1362.904,-210.0
1362.919,-210.0
1362.934,-210.0
1362.949,-210.0
1362.964,-210.0
1362.979,-210.0
1362.994,-210.0
1363.009,-210.0
1363.024,-74.82
1363.039,-77.13
1363.054,-210.0
1363.069,-210.0
1363.084,-210.0
1363.099,-210.0
1363.114,-80.34
1363.129,-73.57
1363.144,-210.0
1363.159,-210.0
1363.174,-73.19
1363.189,-76.96
1363.204,-78.15
1363.219,-79.16
1363.234,-210.0
1363.249,-82.69
1363.264,-67.92
1363.279,-69.58
1363.294,-210.0
1363.309,-76.43
1363.324,-66.83
1363.339,-68.52
1363.354,-68.54
1363.369,-67.4
1363.384,-75.4
1363.399,-70.42
1363.414,-65.37
1363.429,-69.57
1363.444,-77.62
1363.459,-66.52
1363.474,-67.97
1363.489,-69.49
1363.504,-67.85
1363.519,-69.95
1363.534,-210.0
1363.549,-70.12
1363.564,-67.58
1363.579,-80.75
1363.594,-210.0
1363.609,-71.33
1363.624,-210.0
1363.639,-86.04
1363.654,-71.89
1363.669,-210.0
1363.684,-210.0
1363.699,-71.37
1363.714,-74.7
1363.729,-210.0
1363.744,-210.0
1363.759,-210.0
1363.774,-210.0
1363.789,-210.0
1363.804,-69.88
1363.819,-210.0
1363.834,-210.0
1363.849,-72.86
1363.864,-76.31
1363.879,-73.64
1363.894,-76.2
1363.909,-82.0
1363.924,-70.77
1363.939,-66.78
1363.954,-66.84
1363.969,-69.06
1363.984,-68.94
1363.999,-66.36
1364.014,-66.4
1364.029,-67.01
1364.044,-67.93
1364.059,-66.72
1364.074,-67.04
1364.089,-64.24
1364.104,-65.83
1364.119,-67.5
1364.134,-66.91
1364.149,-67.74
1364.164,-67.17
1364.179,-66.77
1364.194,-67.46
1364.209,-69.11
1364.224,-67.15
1364.239,-65.11
1364.254,-66.41
1364.269,-68.48
1364.284,-74.5
1364.299,-71.82
1364.314,-70.8
1364.329,-68.86
1364.344,-70.56
1364.359,-210.0
1364.374,-73.26
1364.389,-67.63
1364.404,-74.08
1364.419,-72.38
1364.434,-78.55
1364.449,-73.64
1364.464,-84.53
1364.479,-71.34
1364.494,-210.0
1364.509,-210.0
1364.524,-71.56
1364.539,-69.27
1364.554,-68.34
1364.569,-70.03
1364.584,-71.2
1364.599,-72.79
1364.614,-67.61
1364.629,-65.53
1364.644,-68.6
1364.659,-68.57
1364.674,-71.66
1364.689,-69.04
1364.704,-69.22
1364.719,-69.57
1364.734,-69.31
1364.749,-69.73
1364.764,-66.57
1364.779,-66.3
1364.794,-65.37
1364.809,-67.77
1364.824,-66.68
1364.839,-65.7
1364.854,-66.87
1364.869,-65.7
1364.884,-69.03
1364.899,-69.9
1364.914,-71.25
1364.929,-69.97
1364.944,-71.73
1364.959,-76.21
1364.974,-74.07
1364.989,-72.89
1365.004,-72.34
1365.019,-78.34
1365.034,-76.44
1365.049,-210.0
1365.064,-210.0
1365.079,-74.88
1365.094,-210.0
1365.109,-72.57
1365.124,-71.08
1365.139,-72.43
1365.154,-70.01
1365.169,-69.04
1365.184,-69.57
1365.199,-69.02
1365.214,-69.37
1365.229,-71.24
1365.245,-71.73
1365.259,-76.15
1365.274,-69.23
1365.289,-66.68
1365.304,-66.9
1365.319,-65.36
1365.334,-66.87
1365.349,-68.15
1365.365,-68.75
1365.38,-68.17
1365.395,-82.04
1365.409,-68.14
1365.424,-69.44
1365.439,-68.38
1365.454,-67.91
1365.469,-67.3
1365.484,-66.69
1365.5,-66.56
1365.515,-65.51
1365.53,-68.61
1365.544,-69.76
1365.559,-73.19
1365.574,-71.84
1365.589,-69.89
1365.604,-69.23
1365.62,-71.62
1365.635,-210.0
1365.65,-68.44
1365.665,-68.54
1365.68,-68.2
1365.694,-68.84
1365.709,-68.78
1365.724,-70.26
1365.74,-70.46
1365.755,-68.28
1365.77,-71.87
1365.785,-74.5
1365.8,-210.0
1365.815,-73.32
1365.83,-69.62
1365.844,-210.0
1365.859,-77.04
1365.875,-210.0
1365.89,-74.5
1365.905,-73.4
1365.92,-68.7
1365.935,-71.1
1365.95,-81.84
1365.965,-70.9
1365.979,-67.98
1365.995,-66.18
1366.01,-68.78
1366.025,-70.35
1366.04,-69.82
1366.055,-70.32
1366.07,-69.31
1366.085,-71.26
1366.1,-210.0
1366.115,-210.0
1366.13,-78.12
1366.145,-210.0
1366.16,-210.0
1366.175,-210.0
1366.19,-210.0
1366.205,-210.0
1366.22,-210.0
1366.235,-210.0
1366.25,-210.0
1366.265,-210.0
1366.28,-210.0
1366.295,-210.0
1366.31,-210.0
1366.325,-210.0
1366.34,-210.0
1366.355,-210.0
1366.37,-210.0
1366.385,-210.0
1366.4,-210.0
1366.415,-210.0
1366.43,-210.0
1366.445,-210.0
1366.46,-87.33
1366.475,-81.35
1366.49,-210.0
1366.505,-210.0
1366.52,-210.0
1366.535,-210.0
1366.55,-210.0
1366.565,-70.38
1366.58,-210.0
1366.595,-210.0
1366.61,-69.9
1366.625,-73.63
1366.64,-74.75
1366.655,-76.71
1366.67,-210.0
1366.685,-105.78
1366.7,-68.06
1366.715,-68.0
1366.73,-87.26
1366.745,-71.97
1366.76,-72.58
1366.775,-79.48
1366.79,-210.0
1366.805,-73.41
1366.82,-210.0
1366.835,-210.0
1366.85,-75.38
1366.865,-210.0
1366.88,-210.0
1366.895,-74.51
1366.91,-74.56
1366.925,-76.29
1366.94,-67.87
1366.955,-67.38
1366.97,-72.64
1366.985,-72.04
1367.0,-73.4
1367.015,-210.0
1367.03,-76.23
1367.045,-80.41
1367.06,-210.0
1367.075,-210.0
1367.09,-85.67
1367.105,-87.66
1367.12,-210.0
1367.135,-210.0
1367.15,-80.28
1367.165,-80.29
1367.18,-67.14
1367.195,-67.29
1367.21,-71.67
1367.225,-73.23
1367.24,-70.52
1367.255,-69.78
1367.27,-68.97
1367.285,-70.9
1367.3,-210.0
1367.315,-76.62
1367.33,-71.47
1367.345,-69.5
1367.36,-68.29
1367.375,-69.71
1367.39,-70.36
1367.405,-69.52
1367.42,-66.88
1367.435,-68.78
1367.45,-71.12
1367.465,-210.0
1367.48,-210.0
1367.495,-75.68
1367.51,-210.0
1367.525,-210.0
1367.54,-210.0
1367.555,-210.0
1367.57,-210.0
1367.585,-210.0
1367.6,-210.0
1367.615,-210.0
1367.63,-210.0
1367.645,-210.0
1367.66,-210.0
1367.675,-210.0
1367.69,-210.0
1367.705,-210.0
1367.72,-210.0
1367.735,-210.0
1367.75,-210.0
1367.765,-76.37
1367.78,-210.0
1367.795,-210.0
1367.81,-71.4
1367.825,-69.62
1367.84,-69.42
1367.855,-68.08
1367.87,-77.11
1367.885,-81.25
1367.9,-71.06
1367.915,-74.7
1367.93,-210.0
1367.945,-210.0
1367.96,-210.0
1367.975,-210.0
1367.99,-210.0
1368.005,-210.0
1368.02,-210.0
1368.035,-210.0
1368.05,-210.0
1368.065,-210.0
1368.08,-210.0
1368.095,-210.0
1368.11,-210.0
1368.125,-210.0
1368.14,-210.0
1368.155,-210.0
1368.17,-210.0
1368.185,-210.0
1368.2,-210.0
1368.215,-210.0
1368.23,-210.0
1368.245,-210.0
1368.26,-210.0
1368.275,-210.0
1368.29,-210.0
1368.305,-210.0
1368.32,-210.0
1368.335,-210.0
1368.35,-210.0
1368.365,-210.0
1368.38,-210.0
1368.395,-210.0
1368.41,-210.0
1368.425,-210.0
1368.44,-210.0
1368.455,-210.0
1368.47,-210.0
1368.485,-210.0
1368.5,-210.0
1368.515,-210.0
1368.53,-210.0
1368.545,-210.0
1368.56,-210.0
1368.575,-210.0
1368.59,-210.0
1368.605,-210.0
1368.62,-210.0
1368.635,-210.0
1368.65,-210.0
1368.665,-210.0
1368.68,-210.0
1368.695,-210.0
1368.71,-210.0
1368.725,-210.0
1368.74,-210.0
1368.755,-210.0
1368.77,-210.0
1368.785,-210.0
1368.8,-210.0
1368.815,-210.0
1368.83,-210.0
1368.845,-210.0
1368.86,-210.0
1368.875,-210.0
1368.89,-210.0
1368.905,-210.0
1368.92,-210.0
1368.935,-210.0
1368.95,-210.0
1368.965,-210.0
1368.98,-210.0
1368.995,-210.0
1369.01,-210.0
1369.025,-210.0
1369.04,-210.0
1369.055,-210.0
1369.07,-210.0
1369.085,-210.0
1369.1,-210.0
1369.115,-210.0
1369.13,-210.0
1369.145,-210.0
1369.16,-210.0
1369.175,-210.0
1369.19,-210.0
1369.205,-210.0
1369.22,-210.0
1369.235,-76.06
1369.25,-210.0
1369.265,-210.0
1369.28,-210.0
1369.295,-210.0
1369.31,-210.0
1369.325,-210.0
1369.34,-210.0
1369.355,-210.0
1369.37,-210.0
1369.385,-210.0
1369.4,-210.0
1369.415,-210.0
1369.43,-210.0
1369.445,-210.0
1369.46,-210.0
1369.475,-77.26
1369.49,-210.0
1369.505,-210.0
1369.52,-210.0
1369.535,-210.0
1369.55,-210.0
1369.565,-70.28
1369.58,-210.0
1369.595,-210.0
1369.61,-72.59
1369.625,-75.52
1369.64,-71.57
1369.655,-210.0
1369.67,-210.0
1369.685,-210.0
1369.7,-210.0
1369.715,-75.64
1369.73,-210.0
1369.745,-210.0
1369.76,-210.0
1369.775,-210.0
1369.79,-210.0
1369.805,-210.0
1369.82,-210.0
1369.835,-210.0
1369.85,-75.45
1369.865,-210.0
1369.88,-73.19
1369.895,-67.2
1369.91,-69.54
1369.925,-75.26
1369.94,-68.59
1369.955,-67.03
1369.97,-72.44
1369.985,-74.58
1370.0,-76.85
